   4.2000000e+01  -1.4000000e+01  -5.6000000e+01  -1.0380000e+03  -9.7500000e+02   2.0130000e+03  -1.3400000e+03  -1.3830000e+03  -1.3740000e+03  -1.3870000e+03  -1.3720000e+03  -1.3750000e+03
   4.1000000e+01  -1.4000000e+01  -5.5000000e+01  -1.0375000e+03  -9.7600000e+02   2.0135000e+03  -1.3403333e+03  -1.3833333e+03  -1.3743333e+03  -1.3873333e+03  -1.3733333e+03  -1.3753333e+03
   4.2000000e+01  -1.4000000e+01  -5.6000000e+01  -1.0380000e+03  -9.7500000e+02   2.0130000e+03  -1.3400000e+03  -1.3830000e+03  -1.3740000e+03  -1.3870000e+03  -1.3730000e+03  -1.3750000e+03
   4.2000000e+01  -1.4000000e+01  -5.6000000e+01  -1.0380000e+03  -9.7500000e+02   2.0130000e+03  -1.3410000e+03  -1.3830000e+03  -1.3740000e+03  -1.3870000e+03  -1.3730000e+03  -1.3750000e+03
   4.2000000e+01  -1.4000000e+01  -5.6000000e+01  -1.0380000e+03  -9.7500000e+02   2.0130000e+03  -1.3410000e+03  -1.3840000e+03  -1.3740000e+03  -1.3870000e+03  -1.3730000e+03  -1.3750000e+03
   4.2000000e+01  -1.4000000e+01  -5.6000000e+01  -1.0380000e+03  -9.7500000e+02   2.0130000e+03  -1.3410000e+03  -1.3840000e+03  -1.3740000e+03  -1.3870000e+03  -1.3730000e+03  -1.3750000e+03
   4.3000000e+01  -1.4000000e+01  -5.7000000e+01  -1.0385000e+03  -9.7400000e+02   2.0125000e+03  -1.3416667e+03  -1.3836667e+03  -1.3746667e+03  -1.3876667e+03  -1.3736667e+03  -1.3756667e+03
   4.4000000e+01  -1.3000000e+01  -5.7000000e+01  -1.0395000e+03  -9.7350000e+02   2.0130000e+03  -1.3410000e+03  -1.3830000e+03  -1.3740000e+03  -1.3870000e+03  -1.3740000e+03  -1.3760000e+03
   4.3000000e+01  -1.3000000e+01  -5.6000000e+01  -1.0390000e+03  -9.7450000e+02   2.0135000e+03  -1.3413333e+03  -1.3833333e+03  -1.3743333e+03  -1.3873333e+03  -1.3743333e+03  -1.3763333e+03
   4.2000000e+01  -1.3000000e+01  -5.5000000e+01  -1.0385000e+03  -9.7550000e+02   2.0140000e+03  -1.3416667e+03  -1.3846667e+03  -1.3756667e+03  -1.3886667e+03  -1.3746667e+03  -1.3766667e+03
   4.2000000e+01  -1.3000000e+01  -5.5000000e+01  -1.0385000e+03  -9.7550000e+02   2.0140000e+03  -1.3416667e+03  -1.3846667e+03  -1.3756667e+03  -1.3886667e+03  -1.3746667e+03  -1.3766667e+03
   4.3000000e+01  -1.2000000e+01  -5.5000000e+01  -1.0395000e+03  -9.7500000e+02   2.0145000e+03  -1.3410000e+03  -1.3840000e+03  -1.3750000e+03  -1.3880000e+03  -1.3740000e+03  -1.3760000e+03
   4.3000000e+01  -1.2000000e+01  -5.5000000e+01  -1.0395000e+03  -9.7500000e+02   2.0145000e+03  -1.3410000e+03  -1.3830000e+03  -1.3750000e+03  -1.3880000e+03  -1.3740000e+03  -1.3760000e+03
   4.3000000e+01  -1.2000000e+01  -5.5000000e+01  -1.0395000e+03  -9.7500000e+02   2.0145000e+03  -1.3410000e+03  -1.3830000e+03  -1.3750000e+03  -1.3880000e+03  -1.3740000e+03  -1.3760000e+03
   4.3000000e+01  -1.2000000e+01  -5.5000000e+01  -1.0395000e+03  -9.7500000e+02   2.0145000e+03  -1.3410000e+03  -1.3840000e+03  -1.3750000e+03  -1.3880000e+03  -1.3740000e+03  -1.3760000e+03
   4.2000000e+01  -1.2000000e+01  -5.4000000e+01  -1.0390000e+03  -9.7600000e+02   2.0150000e+03  -1.3403333e+03  -1.3843333e+03  -1.3753333e+03  -1.3883333e+03  -1.3743333e+03  -1.3773333e+03
   4.2000000e+01  -1.1000000e+01  -5.3000000e+01  -1.0395000e+03  -9.7650000e+02   2.0160000e+03  -1.3400000e+03  -1.3840000e+03  -1.3750000e+03  -1.3880000e+03  -1.3740000e+03  -1.3760000e+03
   4.3000000e+01  -1.1000000e+01  -5.4000000e+01  -1.0400000e+03  -9.7550000e+02   2.0155000e+03  -1.3396667e+03  -1.3846667e+03  -1.3756667e+03  -1.3876667e+03  -1.3746667e+03  -1.3766667e+03
   4.2000000e+01  -1.1000000e+01  -5.3000000e+01  -1.0395000e+03  -9.7650000e+02   2.0160000e+03  -1.3390000e+03  -1.3840000e+03  -1.3750000e+03  -1.3870000e+03  -1.3740000e+03  -1.3760000e+03
   4.1000000e+01  -1.2000000e+01  -5.3000000e+01  -1.0385000e+03  -9.7700000e+02   2.0155000e+03  -1.3386667e+03  -1.3846667e+03  -1.3756667e+03  -1.3876667e+03  -1.3746667e+03  -1.3766667e+03
   4.1000000e+01  -1.2000000e+01  -5.3000000e+01  -1.0385000e+03  -9.7700000e+02   2.0155000e+03  -1.3396667e+03  -1.3846667e+03  -1.3756667e+03  -1.3876667e+03  -1.3746667e+03  -1.3766667e+03
   4.1000000e+01  -1.2000000e+01  -5.3000000e+01  -1.0385000e+03  -9.7700000e+02   2.0155000e+03  -1.3396667e+03  -1.3846667e+03  -1.3756667e+03  -1.3876667e+03  -1.3746667e+03  -1.3766667e+03
   4.1000000e+01  -1.2000000e+01  -5.3000000e+01  -1.0385000e+03  -9.7700000e+02   2.0155000e+03  -1.3396667e+03  -1.3846667e+03  -1.3756667e+03  -1.3886667e+03  -1.3746667e+03  -1.3766667e+03
   4.1000000e+01  -1.2000000e+01  -5.3000000e+01  -1.0385000e+03  -9.7700000e+02   2.0155000e+03  -1.3386667e+03  -1.3846667e+03  -1.3756667e+03  -1.3876667e+03  -1.3746667e+03  -1.3766667e+03
   4.1000000e+01  -1.2000000e+01  -5.3000000e+01  -1.0385000e+03  -9.7700000e+02   2.0155000e+03  -1.3386667e+03  -1.3846667e+03  -1.3756667e+03  -1.3876667e+03  -1.3746667e+03  -1.3766667e+03
   4.0000000e+01  -1.3000000e+01  -5.3000000e+01  -1.0375000e+03  -9.7750000e+02   2.0150000e+03  -1.3383333e+03  -1.3843333e+03  -1.3753333e+03  -1.3883333e+03  -1.3743333e+03  -1.3763333e+03
   4.1000000e+01  -1.3000000e+01  -5.4000000e+01  -1.0380000e+03  -9.7650000e+02   2.0145000e+03  -1.3380000e+03  -1.3840000e+03  -1.3750000e+03  -1.3880000e+03  -1.3740000e+03  -1.3760000e+03
   4.3000000e+01  -1.2000000e+01  -5.5000000e+01  -1.0395000e+03  -9.7500000e+02   2.0145000e+03  -1.3370000e+03  -1.3840000e+03  -1.3760000e+03  -1.3880000e+03  -1.3740000e+03  -1.3770000e+03
   4.3000000e+01  -1.2000000e+01  -5.5000000e+01  -1.0395000e+03  -9.7500000e+02   2.0145000e+03  -1.3370000e+03  -1.3840000e+03  -1.3760000e+03  -1.3880000e+03  -1.3740000e+03  -1.3770000e+03
   4.3000000e+01  -1.2000000e+01  -5.5000000e+01  -1.0395000e+03  -9.7500000e+02   2.0145000e+03  -1.3360000e+03  -1.3840000e+03  -1.3760000e+03  -1.3880000e+03  -1.3740000e+03  -1.3760000e+03
   4.3000000e+01  -1.2000000e+01  -5.5000000e+01  -1.0395000e+03  -9.7500000e+02   2.0145000e+03  -1.3360000e+03  -1.3840000e+03  -1.3760000e+03  -1.3880000e+03  -1.3740000e+03  -1.3770000e+03
   4.3000000e+01  -1.2000000e+01  -5.5000000e+01  -1.0395000e+03  -9.7500000e+02   2.0145000e+03  -1.3350000e+03  -1.3840000e+03  -1.3760000e+03  -1.3880000e+03  -1.3740000e+03  -1.3770000e+03
   4.3000000e+01  -1.2000000e+01  -5.5000000e+01  -1.0395000e+03  -9.7500000e+02   2.0145000e+03  -1.3350000e+03  -1.3840000e+03  -1.3770000e+03  -1.3880000e+03  -1.3740000e+03  -1.3770000e+03
   4.3000000e+01  -1.2000000e+01  -5.5000000e+01  -1.0395000e+03  -9.7500000e+02   2.0145000e+03  -1.3340000e+03  -1.3830000e+03  -1.3770000e+03  -1.3880000e+03  -1.3740000e+03  -1.3770000e+03
   4.3000000e+01  -1.2000000e+01  -5.5000000e+01  -1.0395000e+03  -9.7500000e+02   2.0145000e+03  -1.3340000e+03  -1.3830000e+03  -1.3770000e+03  -1.3880000e+03  -1.3740000e+03  -1.3770000e+03
   4.4000000e+01  -1.1000000e+01  -5.5000000e+01  -1.0405000e+03  -9.7450000e+02   2.0150000e+03  -1.3353333e+03  -1.3833333e+03  -1.3773333e+03  -1.3873333e+03  -1.3743333e+03  -1.3763333e+03
   4.3000000e+01  -1.1000000e+01  -5.4000000e+01  -1.0400000e+03  -9.7550000e+02   2.0155000e+03  -1.3356667e+03  -1.3836667e+03  -1.3776667e+03  -1.3876667e+03  -1.3736667e+03  -1.3766667e+03
   4.4000000e+01  -1.1000000e+01  -5.5000000e+01  -1.0405000e+03  -9.7450000e+02   2.0150000e+03  -1.3353333e+03  -1.3833333e+03  -1.3773333e+03  -1.3873333e+03  -1.3733333e+03  -1.3763333e+03
   4.3000000e+01  -1.1000000e+01  -5.4000000e+01  -1.0400000e+03  -9.7550000e+02   2.0155000e+03  -1.3356667e+03  -1.3836667e+03  -1.3776667e+03  -1.3876667e+03  -1.3736667e+03  -1.3776667e+03
   4.3000000e+01  -1.1000000e+01  -5.4000000e+01  -1.0400000e+03  -9.7550000e+02   2.0155000e+03  -1.3356667e+03  -1.3836667e+03  -1.3776667e+03  -1.3876667e+03  -1.3736667e+03  -1.3766667e+03
   4.2000000e+01  -1.1000000e+01  -5.3000000e+01  -1.0395000e+03  -9.7650000e+02   2.0160000e+03  -1.3360000e+03  -1.3830000e+03  -1.3760000e+03  -1.3870000e+03  -1.3730000e+03  -1.3760000e+03
   4.3000000e+01  -1.0000000e+01  -5.3000000e+01  -1.0405000e+03  -9.7600000e+02   2.0165000e+03  -1.3363333e+03  -1.3833333e+03  -1.3753333e+03  -1.3873333e+03  -1.3723333e+03  -1.3763333e+03
   4.3000000e+01  -1.1000000e+01  -5.4000000e+01  -1.0400000e+03  -9.7550000e+02   2.0155000e+03  -1.3356667e+03  -1.3826667e+03  -1.3756667e+03  -1.3876667e+03  -1.3726667e+03  -1.3766667e+03
   4.3000000e+01  -1.1000000e+01  -5.4000000e+01  -1.0400000e+03  -9.7550000e+02   2.0155000e+03  -1.3356667e+03  -1.3826667e+03  -1.3756667e+03  -1.3876667e+03  -1.3726667e+03  -1.3766667e+03
   4.4000000e+01  -1.1000000e+01  -5.5000000e+01  -1.0405000e+03  -9.7450000e+02   2.0150000e+03  -1.3353333e+03  -1.3823333e+03  -1.3743333e+03  -1.3863333e+03  -1.3723333e+03  -1.3763333e+03
   4.4000000e+01  -1.1000000e+01  -5.5000000e+01  -1.0405000e+03  -9.7450000e+02   2.0150000e+03  -1.3353333e+03  -1.3813333e+03  -1.3733333e+03  -1.3863333e+03  -1.3713333e+03  -1.3763333e+03
   4.3000000e+01  -1.1000000e+01  -5.4000000e+01  -1.0400000e+03  -9.7550000e+02   2.0155000e+03  -1.3346667e+03  -1.3816667e+03  -1.3736667e+03  -1.3866667e+03  -1.3716667e+03  -1.3766667e+03
   4.4000000e+01  -1.0000000e+01  -5.4000000e+01  -1.0410000e+03  -9.7500000e+02   2.0160000e+03  -1.3330000e+03  -1.3800000e+03  -1.3730000e+03  -1.3850000e+03  -1.3710000e+03  -1.3750000e+03
   4.4000000e+01  -1.0000000e+01  -5.4000000e+01  -1.0410000e+03  -9.7500000e+02   2.0160000e+03  -1.3330000e+03  -1.3800000e+03  -1.3730000e+03  -1.3850000e+03  -1.3700000e+03  -1.3750000e+03
   4.5000000e+01  -9.0000000e+00  -5.4000000e+01  -1.0420000e+03  -9.7450000e+02   2.0165000e+03  -1.3333333e+03  -1.3793333e+03  -1.3723333e+03  -1.3853333e+03  -1.3703333e+03  -1.3753333e+03
   4.5000000e+01  -8.0000000e+00  -5.3000000e+01  -1.0425000e+03  -9.7500000e+02   2.0175000e+03  -1.3330000e+03  -1.3790000e+03  -1.3720000e+03  -1.3840000e+03  -1.3690000e+03  -1.3750000e+03
   4.6000000e+01  -6.0000000e+00  -5.2000000e+01  -1.0440000e+03  -9.7500000e+02   2.0190000e+03  -1.3330000e+03  -1.3780000e+03  -1.3710000e+03  -1.3840000e+03  -1.3690000e+03  -1.3750000e+03
   4.6000000e+01  -5.0000000e+00  -5.1000000e+01  -1.0445000e+03  -9.7550000e+02   2.0200000e+03  -1.3336667e+03  -1.3786667e+03  -1.3716667e+03  -1.3846667e+03  -1.3696667e+03  -1.3756667e+03
   4.5000000e+01  -4.0000000e+00  -4.9000000e+01  -1.0445000e+03  -9.7700000e+02   2.0215000e+03  -1.3336667e+03  -1.3776667e+03  -1.3706667e+03  -1.3846667e+03  -1.3696667e+03  -1.3756667e+03
   4.7000000e+01  -2.0000000e+00  -4.9000000e+01  -1.0465000e+03  -9.7600000e+02   2.0225000e+03  -1.3333333e+03  -1.3773333e+03  -1.3703333e+03  -1.3843333e+03  -1.3693333e+03  -1.3753333e+03
   4.8000000e+01   0.0000000e+00  -4.8000000e+01  -1.0480000e+03  -9.7600000e+02   2.0240000e+03  -1.3343333e+03  -1.3773333e+03  -1.3703333e+03  -1.3833333e+03  -1.3693333e+03  -1.3753333e+03
   4.8000000e+01   1.0000000e+00  -4.7000000e+01  -1.0485000e+03  -9.7650000e+02   2.0250000e+03  -1.3340000e+03  -1.3770000e+03  -1.3700000e+03  -1.3830000e+03  -1.3690000e+03  -1.3760000e+03
   4.8000000e+01   3.0000000e+00  -4.5000000e+01  -1.0495000e+03  -9.7750000e+02   2.0270000e+03  -1.3343333e+03  -1.3773333e+03  -1.3703333e+03  -1.3833333e+03  -1.3693333e+03  -1.3763333e+03
   4.8000000e+01   4.0000000e+00  -4.4000000e+01  -1.0500000e+03  -9.7800000e+02   2.0280000e+03  -1.3340000e+03  -1.3770000e+03  -1.3700000e+03  -1.3830000e+03  -1.3690000e+03  -1.3760000e+03
   4.9000000e+01   6.0000000e+00  -4.3000000e+01  -1.0515000e+03  -9.7800000e+02   2.0295000e+03  -1.3330000e+03  -1.3760000e+03  -1.3700000e+03  -1.3830000e+03  -1.3690000e+03  -1.3760000e+03
   4.9000000e+01   7.0000000e+00  -4.2000000e+01  -1.0520000e+03  -9.7850000e+02   2.0305000e+03  -1.3336667e+03  -1.3766667e+03  -1.3706667e+03  -1.3846667e+03  -1.3706667e+03  -1.3766667e+03
   4.9000000e+01   8.0000000e+00  -4.1000000e+01  -1.0525000e+03  -9.7900000e+02   2.0315000e+03  -1.3343333e+03  -1.3773333e+03  -1.3703333e+03  -1.3843333e+03  -1.3703333e+03  -1.3773333e+03
   4.9000000e+01   9.0000000e+00  -4.0000000e+01  -1.0530000e+03  -9.7950000e+02   2.0325000e+03  -1.3340000e+03  -1.3770000e+03  -1.3710000e+03  -1.3840000e+03  -1.3700000e+03  -1.3770000e+03
   4.9000000e+01   1.0000000e+01  -3.9000000e+01  -1.0535000e+03  -9.8000000e+02   2.0335000e+03  -1.3336667e+03  -1.3776667e+03  -1.3716667e+03  -1.3846667e+03  -1.3716667e+03  -1.3776667e+03
   4.9000000e+01   1.1000000e+01  -3.8000000e+01  -1.0540000e+03  -9.8050000e+02   2.0345000e+03  -1.3343333e+03  -1.3783333e+03  -1.3713333e+03  -1.3843333e+03  -1.3713333e+03  -1.3773333e+03
   4.9000000e+01   1.2000000e+01  -3.7000000e+01  -1.0545000e+03  -9.8100000e+02   2.0355000e+03  -1.3340000e+03  -1.3790000e+03  -1.3720000e+03  -1.3850000e+03  -1.3710000e+03  -1.3770000e+03
   4.9000000e+01   1.2000000e+01  -3.7000000e+01  -1.0545000e+03  -9.8100000e+02   2.0355000e+03  -1.3350000e+03  -1.3800000e+03  -1.3730000e+03  -1.3850000e+03  -1.3720000e+03  -1.3770000e+03
   5.1000000e+01   1.4000000e+01  -3.7000000e+01  -1.0565000e+03  -9.8000000e+02   2.0365000e+03  -1.3366667e+03  -1.3816667e+03  -1.3746667e+03  -1.3856667e+03  -1.3726667e+03  -1.3786667e+03
   5.0000000e+01   1.4000000e+01  -3.6000000e+01  -1.0560000e+03  -9.8100000e+02   2.0370000e+03  -1.3370000e+03  -1.3820000e+03  -1.3740000e+03  -1.3850000e+03  -1.3720000e+03  -1.3780000e+03
   5.1000000e+01   1.5000000e+01  -3.6000000e+01  -1.0570000e+03  -9.8050000e+02   2.0375000e+03  -1.3393333e+03  -1.3833333e+03  -1.3743333e+03  -1.3863333e+03  -1.3723333e+03  -1.3773333e+03
   5.0000000e+01   1.5000000e+01  -3.5000000e+01  -1.0565000e+03  -9.8150000e+02   2.0380000e+03  -1.3416667e+03  -1.3846667e+03  -1.3756667e+03  -1.3866667e+03  -1.3726667e+03  -1.3776667e+03
   5.2000000e+01   1.6000000e+01  -3.6000000e+01  -1.0580000e+03  -9.8000000e+02   2.0380000e+03  -1.3436667e+03  -1.3866667e+03  -1.3766667e+03  -1.3866667e+03  -1.3726667e+03  -1.3766667e+03
   5.2000000e+01   1.6000000e+01  -3.6000000e+01  -1.0580000e+03  -9.8000000e+02   2.0380000e+03  -1.3456667e+03  -1.3866667e+03  -1.3766667e+03  -1.3866667e+03  -1.3726667e+03  -1.3776667e+03
   5.2000000e+01   1.6000000e+01  -3.6000000e+01  -1.0580000e+03  -9.8000000e+02   2.0380000e+03  -1.3466667e+03  -1.3876667e+03  -1.3776667e+03  -1.3866667e+03  -1.3716667e+03  -1.3766667e+03
   5.1000000e+01   1.6000000e+01  -3.5000000e+01  -1.0575000e+03  -9.8100000e+02   2.0385000e+03  -1.3470000e+03  -1.3880000e+03  -1.3770000e+03  -1.3860000e+03  -1.3710000e+03  -1.3760000e+03
   5.2000000e+01   1.6000000e+01  -3.6000000e+01  -1.0580000e+03  -9.8000000e+02   2.0380000e+03  -1.3486667e+03  -1.3886667e+03  -1.3776667e+03  -1.3856667e+03  -1.3716667e+03  -1.3766667e+03
   5.3000000e+01   1.6000000e+01  -3.7000000e+01  -1.0585000e+03  -9.7900000e+02   2.0375000e+03  -1.3493333e+03  -1.3883333e+03  -1.3763333e+03  -1.3853333e+03  -1.3713333e+03  -1.3763333e+03
   5.3000000e+01   1.5000000e+01  -3.8000000e+01  -1.0580000e+03  -9.7850000e+02   2.0365000e+03  -1.3496667e+03  -1.3886667e+03  -1.3776667e+03  -1.3856667e+03  -1.3706667e+03  -1.3756667e+03
   5.4000000e+01   1.4000000e+01  -4.0000000e+01  -1.0580000e+03  -9.7700000e+02   2.0350000e+03  -1.3496667e+03  -1.3886667e+03  -1.3776667e+03  -1.3856667e+03  -1.3706667e+03  -1.3756667e+03
   5.3000000e+01   1.2000000e+01  -4.1000000e+01  -1.0565000e+03  -9.7700000e+02   2.0335000e+03  -1.3506667e+03  -1.3876667e+03  -1.3786667e+03  -1.3856667e+03  -1.3696667e+03  -1.3746667e+03
   5.4000000e+01   1.1000000e+01  -4.3000000e+01  -1.0565000e+03  -9.7550000e+02   2.0320000e+03  -1.3496667e+03  -1.3876667e+03  -1.3786667e+03  -1.3856667e+03  -1.3686667e+03  -1.3746667e+03
   5.5000000e+01   1.0000000e+01  -4.5000000e+01  -1.0565000e+03  -9.7400000e+02   2.0305000e+03  -1.3486667e+03  -1.3866667e+03  -1.3766667e+03  -1.3856667e+03  -1.3686667e+03  -1.3736667e+03
   5.5000000e+01   9.0000000e+00  -4.6000000e+01  -1.0560000e+03  -9.7350000e+02   2.0295000e+03  -1.3470000e+03  -1.3840000e+03  -1.3760000e+03  -1.3840000e+03  -1.3670000e+03  -1.3730000e+03
   5.4000000e+01   7.0000000e+00  -4.7000000e+01  -1.0545000e+03  -9.7350000e+02   2.0280000e+03  -1.3460000e+03  -1.3840000e+03  -1.3770000e+03  -1.3840000e+03  -1.3670000e+03  -1.3720000e+03
   5.4000000e+01   6.0000000e+00  -4.8000000e+01  -1.0540000e+03  -9.7300000e+02   2.0270000e+03  -1.3453333e+03  -1.3843333e+03  -1.3773333e+03  -1.3853333e+03  -1.3663333e+03  -1.3723333e+03
   5.3000000e+01   3.0000000e+00  -5.0000000e+01  -1.0520000e+03  -9.7250000e+02   2.0245000e+03  -1.3426667e+03  -1.3836667e+03  -1.3776667e+03  -1.3856667e+03  -1.3656667e+03  -1.3726667e+03
   5.3000000e+01   2.0000000e+00  -5.1000000e+01  -1.0515000e+03  -9.7200000e+02   2.0235000e+03  -1.3410000e+03  -1.3830000e+03  -1.3760000e+03  -1.3850000e+03  -1.3650000e+03  -1.3720000e+03
   5.3000000e+01   1.0000000e+00  -5.2000000e+01  -1.0510000e+03  -9.7150000e+02   2.0225000e+03  -1.3403333e+03  -1.3823333e+03  -1.3743333e+03  -1.3843333e+03  -1.3653333e+03  -1.3723333e+03
   5.3000000e+01   0.0000000e+00  -5.3000000e+01  -1.0505000e+03  -9.7100000e+02   2.0215000e+03  -1.3396667e+03  -1.3826667e+03  -1.3746667e+03  -1.3846667e+03  -1.3656667e+03  -1.3726667e+03
   5.1000000e+01  -2.0000000e+00  -5.3000000e+01  -1.0485000e+03  -9.7200000e+02   2.0205000e+03  -1.3370000e+03  -1.3820000e+03  -1.3750000e+03  -1.3850000e+03  -1.3650000e+03  -1.3720000e+03
   5.1000000e+01  -3.0000000e+00  -5.4000000e+01  -1.0480000e+03  -9.7150000e+02   2.0195000e+03  -1.3363333e+03  -1.3823333e+03  -1.3753333e+03  -1.3853333e+03  -1.3653333e+03  -1.3733333e+03
   4.9000000e+01  -5.0000000e+00  -5.4000000e+01  -1.0460000e+03  -9.7250000e+02   2.0185000e+03  -1.3356667e+03  -1.3826667e+03  -1.3756667e+03  -1.3856667e+03  -1.3656667e+03  -1.3736667e+03
   4.8000000e+01  -6.0000000e+00  -5.4000000e+01  -1.0450000e+03  -9.7300000e+02   2.0180000e+03  -1.3343333e+03  -1.3823333e+03  -1.3753333e+03  -1.3853333e+03  -1.3653333e+03  -1.3733333e+03
   4.6000000e+01  -8.0000000e+00  -5.4000000e+01  -1.0430000e+03  -9.7400000e+02   2.0170000e+03  -1.3336667e+03  -1.3816667e+03  -1.3746667e+03  -1.3856667e+03  -1.3666667e+03  -1.3746667e+03
   4.6000000e+01  -8.0000000e+00  -5.4000000e+01  -1.0430000e+03  -9.7400000e+02   2.0170000e+03  -1.3336667e+03  -1.3816667e+03  -1.3756667e+03  -1.3866667e+03  -1.3666667e+03  -1.3746667e+03
   4.5000000e+01  -9.0000000e+00  -5.4000000e+01  -1.0420000e+03  -9.7450000e+02   2.0165000e+03  -1.3333333e+03  -1.3813333e+03  -1.3753333e+03  -1.3863333e+03  -1.3663333e+03  -1.3743333e+03
   4.4000000e+01  -1.0000000e+01  -5.4000000e+01  -1.0410000e+03  -9.7500000e+02   2.0160000e+03  -1.3330000e+03  -1.3820000e+03  -1.3760000e+03  -1.3850000e+03  -1.3660000e+03  -1.3750000e+03
   4.4000000e+01  -1.1000000e+01  -5.5000000e+01  -1.0405000e+03  -9.7450000e+02   2.0150000e+03  -1.3333333e+03  -1.3823333e+03  -1.3763333e+03  -1.3853333e+03  -1.3663333e+03  -1.3743333e+03
   4.3000000e+01  -1.2000000e+01  -5.5000000e+01  -1.0395000e+03  -9.7500000e+02   2.0145000e+03  -1.3330000e+03  -1.3820000e+03  -1.3760000e+03  -1.3850000e+03  -1.3660000e+03  -1.3740000e+03
   4.2000000e+01  -1.2000000e+01  -5.4000000e+01  -1.0390000e+03  -9.7600000e+02   2.0150000e+03  -1.3333333e+03  -1.3813333e+03  -1.3763333e+03  -1.3853333e+03  -1.3653333e+03  -1.3743333e+03
   4.3000000e+01  -1.2000000e+01  -5.5000000e+01  -1.0395000e+03  -9.7500000e+02   2.0145000e+03  -1.3330000e+03  -1.3810000e+03  -1.3760000e+03  -1.3850000e+03  -1.3650000e+03  -1.3740000e+03
   4.3000000e+01  -1.3000000e+01  -5.6000000e+01  -1.0390000e+03  -9.7450000e+02   2.0135000e+03  -1.3333333e+03  -1.3803333e+03  -1.3763333e+03  -1.3853333e+03  -1.3653333e+03  -1.3743333e+03
   4.2000000e+01  -1.4000000e+01  -5.6000000e+01  -1.0380000e+03  -9.7500000e+02   2.0130000e+03  -1.3320000e+03  -1.3790000e+03  -1.3750000e+03  -1.3840000e+03  -1.3640000e+03  -1.3740000e+03
   4.3000000e+01  -1.5000000e+01  -5.8000000e+01  -1.0380000e+03  -9.7350000e+02   2.0115000e+03  -1.3310000e+03  -1.3760000e+03  -1.3730000e+03  -1.3840000e+03  -1.3640000e+03  -1.3740000e+03
   4.4000000e+01  -1.6000000e+01  -6.0000000e+01  -1.0380000e+03  -9.7200000e+02   2.0100000e+03  -1.3290000e+03  -1.3720000e+03  -1.3710000e+03  -1.3830000e+03  -1.3640000e+03  -1.3740000e+03
   4.3000000e+01  -1.9000000e+01  -6.2000000e+01  -1.0360000e+03  -9.7150000e+02   2.0075000e+03  -1.3243333e+03  -1.3653333e+03  -1.3653333e+03  -1.3813333e+03  -1.3643333e+03  -1.3743333e+03
   4.4000000e+01  -2.0000000e+01  -6.4000000e+01  -1.0360000e+03  -9.7000000e+02   2.0060000e+03  -1.3193333e+03  -1.3583333e+03  -1.3613333e+03  -1.3793333e+03  -1.3643333e+03  -1.3753333e+03
   4.4000000e+01  -2.3000000e+01  -6.7000000e+01  -1.0345000e+03  -9.6850000e+02   2.0030000e+03  -1.3113333e+03  -1.3453333e+03  -1.3503333e+03  -1.3753333e+03  -1.3643333e+03  -1.3763333e+03
   4.5000000e+01  -2.5000000e+01  -7.0000000e+01  -1.0340000e+03  -9.6650000e+02   2.0005000e+03  -1.3036667e+03  -1.3346667e+03  -1.3426667e+03  -1.3726667e+03  -1.3646667e+03  -1.3776667e+03
   4.6000000e+01  -2.9000000e+01  -7.5000000e+01  -1.0325000e+03  -9.6350000e+02   1.9960000e+03  -1.2906667e+03  -1.3156667e+03  -1.3276667e+03  -1.3666667e+03  -1.3656667e+03  -1.3786667e+03
   4.6000000e+01  -3.2000000e+01  -7.8000000e+01  -1.0310000e+03  -9.6200000e+02   1.9930000e+03  -1.2816667e+03  -1.3006667e+03  -1.3166667e+03  -1.3616667e+03  -1.3656667e+03  -1.3796667e+03
   4.8000000e+01  -3.5000000e+01  -8.3000000e+01  -1.0305000e+03  -9.5850000e+02   1.9890000e+03  -1.2660000e+03  -1.2760000e+03  -1.2980000e+03  -1.3540000e+03  -1.3640000e+03  -1.3800000e+03
   4.9000000e+01  -3.6000000e+01  -8.5000000e+01  -1.0305000e+03  -9.5700000e+02   1.9875000e+03  -1.2570000e+03  -1.2590000e+03  -1.2850000e+03  -1.3470000e+03  -1.3630000e+03  -1.3800000e+03
   5.2000000e+01  -3.6000000e+01  -8.8000000e+01  -1.0320000e+03  -9.5400000e+02   1.9860000e+03  -1.2440000e+03  -1.2340000e+03  -1.2630000e+03  -1.3360000e+03  -1.3610000e+03  -1.3790000e+03
   5.3000000e+01  -3.5000000e+01  -8.8000000e+01  -1.0330000e+03  -9.5350000e+02   1.9865000e+03  -1.2373333e+03  -1.2163333e+03  -1.2493333e+03  -1.3273333e+03  -1.3583333e+03  -1.3783333e+03
   5.7000000e+01  -3.0000000e+01  -8.7000000e+01  -1.0375000e+03  -9.5200000e+02   1.9895000e+03  -1.2313333e+03  -1.1953333e+03  -1.2303333e+03  -1.3143333e+03  -1.3523333e+03  -1.3733333e+03
   6.1000000e+01  -2.4000000e+01  -8.5000000e+01  -1.0425000e+03  -9.5100000e+02   1.9935000e+03  -1.2310000e+03  -1.1830000e+03  -1.2170000e+03  -1.3030000e+03  -1.3450000e+03  -1.3680000e+03
   6.8000000e+01  -1.1000000e+01  -7.9000000e+01  -1.0525000e+03  -9.5050000e+02   2.0030000e+03  -1.2373333e+03  -1.1683333e+03  -1.1993333e+03  -1.2853333e+03  -1.3303333e+03  -1.3553333e+03
   7.5000000e+01   1.0000000e+00  -7.4000000e+01  -1.0620000e+03  -9.4950000e+02   2.0115000e+03  -1.2440000e+03  -1.1630000e+03  -1.1890000e+03  -1.2700000e+03  -1.3170000e+03  -1.3430000e+03
   8.6000000e+01   2.4000000e+01  -6.2000000e+01  -1.0790000e+03  -9.5000000e+02   2.0290000e+03  -1.2646667e+03  -1.1656667e+03  -1.1796667e+03  -1.2466667e+03  -1.2936667e+03  -1.3216667e+03
   9.5000000e+01   4.4000000e+01  -5.1000000e+01  -1.0935000e+03  -9.5100000e+02   2.0445000e+03  -1.2810000e+03  -1.1740000e+03  -1.1770000e+03  -1.2290000e+03  -1.2720000e+03  -1.3020000e+03
   1.1100000e+02   7.7000000e+01  -3.4000000e+01  -1.1180000e+03  -9.5150000e+02   2.0695000e+03  -1.3146667e+03  -1.1946667e+03  -1.1776667e+03  -1.2036667e+03  -1.2386667e+03  -1.2686667e+03
   1.2200000e+02   1.0200000e+02  -2.0000000e+01  -1.1360000e+03  -9.5300000e+02   2.0890000e+03  -1.3416667e+03  -1.2156667e+03  -1.1806667e+03  -1.1836667e+03  -1.2116667e+03  -1.2426667e+03
   1.3900000e+02   1.4100000e+02   2.0000000e+00  -1.1640000e+03  -9.5550000e+02   2.1195000e+03  -1.3860000e+03  -1.2560000e+03  -1.1920000e+03  -1.1540000e+03  -1.1690000e+03  -1.1990000e+03
   1.5100000e+02   1.6800000e+02   1.7000000e+01  -1.1835000e+03  -9.5700000e+02   2.1405000e+03  -1.4170000e+03  -1.2920000e+03  -1.2040000e+03  -1.1340000e+03  -1.1390000e+03  -1.1690000e+03
   1.6600000e+02   2.0700000e+02   4.1000000e+01  -1.2105000e+03  -9.6150000e+02   2.1720000e+03  -1.4640000e+03  -1.3530000e+03  -1.2310000e+03  -1.1080000e+03  -1.0940000e+03  -1.1240000e+03
   1.7500000e+02   2.3200000e+02   5.7000000e+01  -1.2275000e+03  -9.6500000e+02   2.1925000e+03  -1.4956667e+03  -1.4016667e+03  -1.2556667e+03  -1.0966667e+03  -1.0686667e+03  -1.0976667e+03
   1.8600000e+02   2.6700000e+02   8.1000000e+01  -1.2505000e+03  -9.7150000e+02   2.2220000e+03  -1.5403333e+03  -1.4763333e+03  -1.2983333e+03  -1.0843333e+03  -1.0363333e+03  -1.0633333e+03
   1.9100000e+02   2.8600000e+02   9.5000000e+01  -1.2625000e+03  -9.7600000e+02   2.2385000e+03  -1.5663333e+03  -1.5273333e+03  -1.3293333e+03  -1.0853333e+03  -1.0233333e+03  -1.0463333e+03
   1.9100000e+02   3.0100000e+02   1.1000000e+02  -1.2700000e+03  -9.8350000e+02   2.2535000e+03  -1.5923333e+03  -1.5993333e+03  -1.3783333e+03  -1.0913333e+03  -1.0133333e+03  -1.0323333e+03
   1.8700000e+02   3.0400000e+02   1.1700000e+02  -1.2695000e+03  -9.8900000e+02   2.2585000e+03  -1.6036667e+03  -1.6446667e+03  -1.4126667e+03  -1.1006667e+03  -1.0126667e+03  -1.0296667e+03
   1.7700000e+02   3.0200000e+02   1.2500000e+02  -1.2635000e+03  -9.9800000e+02   2.2615000e+03  -1.6126667e+03  -1.7086667e+03  -1.4656667e+03  -1.1276667e+03  -1.0256667e+03  -1.0386667e+03
   1.6700000e+02   2.9500000e+02   1.2800000e+02  -1.2550000e+03  -1.0045000e+03   2.2595000e+03  -1.6123333e+03  -1.7443333e+03  -1.5023333e+03  -1.1523333e+03  -1.0443333e+03  -1.0543333e+03
   1.4900000e+02   2.7600000e+02   1.2700000e+02  -1.2365000e+03  -1.0130000e+03   2.2495000e+03  -1.6056667e+03  -1.7876667e+03  -1.5526667e+03  -1.2046667e+03  -1.0876667e+03  -1.0926667e+03
   1.3400000e+02   2.5700000e+02   1.2300000e+02  -1.2195000e+03  -1.0185000e+03   2.2380000e+03  -1.5930000e+03  -1.8050000e+03  -1.5810000e+03  -1.2410000e+03  -1.1220000e+03  -1.1240000e+03
   1.0800000e+02   2.1900000e+02   1.1100000e+02  -1.1875000e+03  -1.0255000e+03   2.2130000e+03  -1.5663333e+03  -1.8143333e+03  -1.6113333e+03  -1.2953333e+03  -1.1753333e+03  -1.1763333e+03
   9.2000000e+01   1.9100000e+02   9.9000000e+01  -1.1655000e+03  -1.0275000e+03   2.1930000e+03  -1.5450000e+03  -1.8120000e+03  -1.6240000e+03  -1.3270000e+03  -1.2110000e+03  -1.2100000e+03
   6.9000000e+01   1.5000000e+02   8.1000000e+01  -1.1335000e+03  -1.0300000e+03   2.1635000e+03  -1.5193333e+03  -1.8003333e+03  -1.6373333e+03  -1.3743333e+03  -1.2633333e+03  -1.2603333e+03
   5.6000000e+01   1.2500000e+02   6.9000000e+01  -1.1145000e+03  -1.0305000e+03   2.1450000e+03  -1.5030000e+03  -1.7880000e+03  -1.6420000e+03  -1.4050000e+03  -1.2960000e+03  -1.2930000e+03
   3.9000000e+01   8.8000000e+01   4.9000000e+01  -1.0875000e+03  -1.0290000e+03   2.1165000e+03  -1.4780000e+03  -1.7570000e+03  -1.6380000e+03  -1.4450000e+03  -1.3410000e+03  -1.3380000e+03
   2.9000000e+01   6.4000000e+01   3.5000000e+01  -1.0705000e+03  -1.0270000e+03   2.0975000e+03  -1.4623333e+03  -1.7313333e+03  -1.6283333e+03  -1.4643333e+03  -1.3653333e+03  -1.3623333e+03
   2.0000000e+01   3.3000000e+01   1.3000000e+01  -1.0505000e+03  -1.0205000e+03   2.0710000e+03  -1.4406667e+03  -1.6846667e+03  -1.6036667e+03  -1.4786667e+03  -1.3896667e+03  -1.3876667e+03
   1.6000000e+01   1.7000000e+01   1.0000000e+00  -1.0405000e+03  -1.0165000e+03   2.0570000e+03  -1.4293333e+03  -1.6543333e+03  -1.5843333e+03  -1.4793333e+03  -1.3973333e+03  -1.3973333e+03
   1.5000000e+01   0.0000000e+00  -1.5000000e+01  -1.0315000e+03  -1.0090000e+03   2.0405000e+03  -1.4183333e+03  -1.6103333e+03  -1.5533333e+03  -1.4773333e+03  -1.4043333e+03  -1.4053333e+03
   1.6000000e+01  -8.0000000e+00  -2.4000000e+01  -1.0280000e+03  -1.0040000e+03   2.0320000e+03  -1.4136667e+03  -1.5826667e+03  -1.5336667e+03  -1.4726667e+03  -1.4046667e+03  -1.4066667e+03
   2.1000000e+01  -1.4000000e+01  -3.5000000e+01  -1.0275000e+03  -9.9600000e+02   2.0235000e+03  -1.4040000e+03  -1.5400000e+03  -1.5010000e+03  -1.4620000e+03  -1.4010000e+03  -1.4050000e+03
   2.4000000e+01  -1.7000000e+01  -4.1000000e+01  -1.0275000e+03  -9.9150000e+02   2.0190000e+03  -1.3980000e+03  -1.5130000e+03  -1.4800000e+03  -1.4520000e+03  -1.3970000e+03  -1.4010000e+03
   3.0000000e+01  -1.8000000e+01  -4.8000000e+01  -1.0300000e+03  -9.8500000e+02   2.0150000e+03  -1.3893333e+03  -1.4773333e+03  -1.4513333e+03  -1.4353333e+03  -1.3883333e+03  -1.3943333e+03
   3.4000000e+01  -1.7000000e+01  -5.1000000e+01  -1.0325000e+03  -9.8150000e+02   2.0140000e+03  -1.3846667e+03  -1.4576667e+03  -1.4336667e+03  -1.4256667e+03  -1.3826667e+03  -1.3906667e+03
   4.0000000e+01  -1.4000000e+01  -5.4000000e+01  -1.0370000e+03  -9.7700000e+02   2.0140000e+03  -1.3786667e+03  -1.4306667e+03  -1.4126667e+03  -1.4106667e+03  -1.3736667e+03  -1.3826667e+03
   4.3000000e+01  -1.2000000e+01  -5.5000000e+01  -1.0395000e+03  -9.7500000e+02   2.0145000e+03  -1.3730000e+03  -1.4150000e+03  -1.3990000e+03  -1.4020000e+03  -1.3680000e+03  -1.3780000e+03
   4.5000000e+01  -9.0000000e+00  -5.4000000e+01  -1.0420000e+03  -9.7450000e+02   2.0165000e+03  -1.3653333e+03  -1.3953333e+03  -1.3823333e+03  -1.3933333e+03  -1.3633333e+03  -1.3733333e+03
   4.8000000e+01  -7.0000000e+00  -5.5000000e+01  -1.0445000e+03  -9.7250000e+02   2.0170000e+03  -1.3596667e+03  -1.3846667e+03  -1.3726667e+03  -1.3876667e+03  -1.3606667e+03  -1.3716667e+03
   5.0000000e+01  -6.0000000e+00  -5.6000000e+01  -1.0460000e+03  -9.7100000e+02   2.0170000e+03  -1.3516667e+03  -1.3706667e+03  -1.3626667e+03  -1.3806667e+03  -1.3566667e+03  -1.3686667e+03
   5.1000000e+01  -5.0000000e+00  -5.6000000e+01  -1.0470000e+03  -9.7050000e+02   2.0175000e+03  -1.3470000e+03  -1.3630000e+03  -1.3560000e+03  -1.3770000e+03  -1.3540000e+03  -1.3670000e+03
   5.2000000e+01  -5.0000000e+00  -5.7000000e+01  -1.0475000e+03  -9.6950000e+02   2.0170000e+03  -1.3426667e+03  -1.3546667e+03  -1.3496667e+03  -1.3736667e+03  -1.3526667e+03  -1.3656667e+03
   5.3000000e+01  -5.0000000e+00  -5.8000000e+01  -1.0480000e+03  -9.6850000e+02   2.0165000e+03  -1.3393333e+03  -1.3483333e+03  -1.3463333e+03  -1.3703333e+03  -1.3513333e+03  -1.3643333e+03
   5.1000000e+01  -7.0000000e+00  -5.8000000e+01  -1.0460000e+03  -9.6950000e+02   2.0155000e+03  -1.3356667e+03  -1.3426667e+03  -1.3416667e+03  -1.3676667e+03  -1.3496667e+03  -1.3636667e+03
   5.2000000e+01  -7.0000000e+00  -5.9000000e+01  -1.0465000e+03  -9.6850000e+02   2.0150000e+03  -1.3323333e+03  -1.3393333e+03  -1.3383333e+03  -1.3663333e+03  -1.3483333e+03  -1.3623333e+03
   5.3000000e+01  -8.0000000e+00  -6.1000000e+01  -1.0465000e+03  -9.6700000e+02   2.0135000e+03  -1.3293333e+03  -1.3353333e+03  -1.3353333e+03  -1.3643333e+03  -1.3473333e+03  -1.3613333e+03
   5.2000000e+01  -9.0000000e+00  -6.1000000e+01  -1.0455000e+03  -9.6750000e+02   2.0130000e+03  -1.3280000e+03  -1.3330000e+03  -1.3340000e+03  -1.3630000e+03  -1.3460000e+03  -1.3600000e+03
   5.4000000e+01  -8.0000000e+00  -6.2000000e+01  -1.0470000e+03  -9.6600000e+02   2.0130000e+03  -1.3270000e+03  -1.3300000e+03  -1.3310000e+03  -1.3620000e+03  -1.3460000e+03  -1.3600000e+03
   5.5000000e+01  -8.0000000e+00  -6.3000000e+01  -1.0475000e+03  -9.6500000e+02   2.0125000e+03  -1.3276667e+03  -1.3296667e+03  -1.3306667e+03  -1.3616667e+03  -1.3466667e+03  -1.3596667e+03
   5.5000000e+01  -9.0000000e+00  -6.4000000e+01  -1.0470000e+03  -9.6450000e+02   2.0115000e+03  -1.3250000e+03  -1.3270000e+03  -1.3280000e+03  -1.3600000e+03  -1.3450000e+03  -1.3590000e+03
   5.5000000e+01  -9.0000000e+00  -6.4000000e+01  -1.0470000e+03  -9.6450000e+02   2.0115000e+03  -1.3250000e+03  -1.3260000e+03  -1.3270000e+03  -1.3590000e+03  -1.3450000e+03  -1.3580000e+03
   5.6000000e+01  -8.0000000e+00  -6.4000000e+01  -1.0480000e+03  -9.6400000e+02   2.0120000e+03  -1.3233333e+03  -1.3253333e+03  -1.3263333e+03  -1.3583333e+03  -1.3443333e+03  -1.3583333e+03
   5.6000000e+01  -8.0000000e+00  -6.4000000e+01  -1.0480000e+03  -9.6400000e+02   2.0120000e+03  -1.3223333e+03  -1.3243333e+03  -1.3253333e+03  -1.3583333e+03  -1.3443333e+03  -1.3573333e+03
   5.7000000e+01  -8.0000000e+00  -6.5000000e+01  -1.0485000e+03  -9.6300000e+02   2.0115000e+03  -1.3220000e+03  -1.3220000e+03  -1.3250000e+03  -1.3570000e+03  -1.3430000e+03  -1.3570000e+03
   5.8000000e+01  -8.0000000e+00  -6.6000000e+01  -1.0490000e+03  -9.6200000e+02   2.0110000e+03  -1.3216667e+03  -1.3226667e+03  -1.3256667e+03  -1.3566667e+03  -1.3436667e+03  -1.3566667e+03
   6.0000000e+01  -7.0000000e+00  -6.7000000e+01  -1.0505000e+03  -9.6050000e+02   2.0110000e+03  -1.3216667e+03  -1.3206667e+03  -1.3246667e+03  -1.3546667e+03  -1.3426667e+03  -1.3556667e+03
   6.0000000e+01  -7.0000000e+00  -6.7000000e+01  -1.0505000e+03  -9.6050000e+02   2.0110000e+03  -1.3206667e+03  -1.3196667e+03  -1.3246667e+03  -1.3546667e+03  -1.3416667e+03  -1.3556667e+03
   6.0000000e+01  -6.0000000e+00  -6.6000000e+01  -1.0510000e+03  -9.6100000e+02   2.0120000e+03  -1.3203333e+03  -1.3183333e+03  -1.3223333e+03  -1.3523333e+03  -1.3403333e+03  -1.3543333e+03
   6.0000000e+01  -6.0000000e+00  -6.6000000e+01  -1.0510000e+03  -9.6100000e+02   2.0120000e+03  -1.3203333e+03  -1.3183333e+03  -1.3213333e+03  -1.3513333e+03  -1.3393333e+03  -1.3533333e+03
   6.2000000e+01  -5.0000000e+00  -6.7000000e+01  -1.0525000e+03  -9.5950000e+02   2.0120000e+03  -1.3203333e+03  -1.3183333e+03  -1.3213333e+03  -1.3503333e+03  -1.3403333e+03  -1.3523333e+03
   6.2000000e+01  -5.0000000e+00  -6.7000000e+01  -1.0525000e+03  -9.5950000e+02   2.0120000e+03  -1.3203333e+03  -1.3183333e+03  -1.3203333e+03  -1.3493333e+03  -1.3393333e+03  -1.3523333e+03
   6.3000000e+01  -5.0000000e+00  -6.8000000e+01  -1.0530000e+03  -9.5850000e+02   2.0115000e+03  -1.3200000e+03  -1.3170000e+03  -1.3190000e+03  -1.3480000e+03  -1.3380000e+03  -1.3510000e+03
   6.4000000e+01  -4.0000000e+00  -6.8000000e+01  -1.0540000e+03  -9.5800000e+02   2.0120000e+03  -1.3203333e+03  -1.3163333e+03  -1.3183333e+03  -1.3473333e+03  -1.3373333e+03  -1.3503333e+03
   6.2000000e+01  -4.0000000e+00  -6.6000000e+01  -1.0530000e+03  -9.6000000e+02   2.0130000e+03  -1.3210000e+03  -1.3160000e+03  -1.3160000e+03  -1.3450000e+03  -1.3360000e+03  -1.3490000e+03
   6.1000000e+01  -4.0000000e+00  -6.5000000e+01  -1.0525000e+03  -9.6100000e+02   2.0135000e+03  -1.3213333e+03  -1.3163333e+03  -1.3163333e+03  -1.3453333e+03  -1.3353333e+03  -1.3493333e+03
   6.2000000e+01  -3.0000000e+00  -6.5000000e+01  -1.0535000e+03  -9.6050000e+02   2.0140000e+03  -1.3226667e+03  -1.3156667e+03  -1.3156667e+03  -1.3436667e+03  -1.3346667e+03  -1.3486667e+03
   6.3000000e+01  -3.0000000e+00  -6.6000000e+01  -1.0540000e+03  -9.5950000e+02   2.0135000e+03  -1.3233333e+03  -1.3153333e+03  -1.3143333e+03  -1.3423333e+03  -1.3333333e+03  -1.3473333e+03
   6.3000000e+01  -3.0000000e+00  -6.6000000e+01  -1.0540000e+03  -9.5950000e+02   2.0135000e+03  -1.3233333e+03  -1.3143333e+03  -1.3133333e+03  -1.3413333e+03  -1.3323333e+03  -1.3463333e+03
   6.3000000e+01  -3.0000000e+00  -6.6000000e+01  -1.0540000e+03  -9.5950000e+02   2.0135000e+03  -1.3233333e+03  -1.3143333e+03  -1.3123333e+03  -1.3403333e+03  -1.3313333e+03  -1.3463333e+03
   6.3000000e+01  -2.0000000e+00  -6.5000000e+01  -1.0545000e+03  -9.6000000e+02   2.0145000e+03  -1.3230000e+03  -1.3140000e+03  -1.3110000e+03  -1.3390000e+03  -1.3300000e+03  -1.3450000e+03
   6.3000000e+01  -2.0000000e+00  -6.5000000e+01  -1.0545000e+03  -9.6000000e+02   2.0145000e+03  -1.3240000e+03  -1.3130000e+03  -1.3100000e+03  -1.3390000e+03  -1.3290000e+03  -1.3440000e+03
   6.5000000e+01  -1.0000000e+00  -6.6000000e+01  -1.0560000e+03  -9.5850000e+02   2.0145000e+03  -1.3240000e+03  -1.3130000e+03  -1.3100000e+03  -1.3380000e+03  -1.3280000e+03  -1.3430000e+03
   6.5000000e+01  -1.0000000e+00  -6.6000000e+01  -1.0560000e+03  -9.5850000e+02   2.0145000e+03  -1.3240000e+03  -1.3120000e+03  -1.3090000e+03  -1.3380000e+03  -1.3280000e+03  -1.3430000e+03
   6.7000000e+01   0.0000000e+00  -6.7000000e+01  -1.0575000e+03  -9.5700000e+02   2.0145000e+03  -1.3230000e+03  -1.3110000e+03  -1.3080000e+03  -1.3370000e+03  -1.3270000e+03  -1.3410000e+03
   6.8000000e+01   0.0000000e+00  -6.8000000e+01  -1.0580000e+03  -9.5600000e+02   2.0140000e+03  -1.3226667e+03  -1.3106667e+03  -1.3086667e+03  -1.3366667e+03  -1.3266667e+03  -1.3416667e+03
   6.7000000e+01   1.0000000e+00  -6.6000000e+01  -1.0580000e+03  -9.5750000e+02   2.0155000e+03  -1.3216667e+03  -1.3106667e+03  -1.3076667e+03  -1.3356667e+03  -1.3256667e+03  -1.3406667e+03
   6.7000000e+01   1.0000000e+00  -6.6000000e+01  -1.0580000e+03  -9.5750000e+02   2.0155000e+03  -1.3226667e+03  -1.3106667e+03  -1.3066667e+03  -1.3356667e+03  -1.3256667e+03  -1.3396667e+03
   6.8000000e+01   2.0000000e+00  -6.6000000e+01  -1.0590000e+03  -9.5700000e+02   2.0160000e+03  -1.3220000e+03  -1.3090000e+03  -1.3050000e+03  -1.3340000e+03  -1.3230000e+03  -1.3380000e+03
   6.9000000e+01   3.0000000e+00  -6.6000000e+01  -1.0600000e+03  -9.5650000e+02   2.0165000e+03  -1.3213333e+03  -1.3083333e+03  -1.3043333e+03  -1.3333333e+03  -1.3233333e+03  -1.3373333e+03
   7.1000000e+01   4.0000000e+00  -6.7000000e+01  -1.0615000e+03  -9.5500000e+02   2.0165000e+03  -1.3213333e+03  -1.3063333e+03  -1.3043333e+03  -1.3323333e+03  -1.3213333e+03  -1.3363333e+03
   7.1000000e+01   4.0000000e+00  -6.7000000e+01  -1.0615000e+03  -9.5500000e+02   2.0165000e+03  -1.3213333e+03  -1.3063333e+03  -1.3033333e+03  -1.3313333e+03  -1.3203333e+03  -1.3353333e+03
   7.0000000e+01   4.0000000e+00  -6.6000000e+01  -1.0610000e+03  -9.5600000e+02   2.0170000e+03  -1.3226667e+03  -1.3056667e+03  -1.3026667e+03  -1.3306667e+03  -1.3196667e+03  -1.3346667e+03
   7.1000000e+01   5.0000000e+00  -6.6000000e+01  -1.0620000e+03  -9.5550000e+02   2.0175000e+03  -1.3220000e+03  -1.3040000e+03  -1.3010000e+03  -1.3290000e+03  -1.3190000e+03  -1.3330000e+03
   7.1000000e+01   5.0000000e+00  -6.6000000e+01  -1.0620000e+03  -9.5550000e+02   2.0175000e+03  -1.3230000e+03  -1.3030000e+03  -1.2990000e+03  -1.3280000e+03  -1.3170000e+03  -1.3320000e+03
   7.3000000e+01   6.0000000e+00  -6.7000000e+01  -1.0635000e+03  -9.5400000e+02   2.0175000e+03  -1.3230000e+03  -1.3020000e+03  -1.2980000e+03  -1.3270000e+03  -1.3160000e+03  -1.3320000e+03
   7.3000000e+01   6.0000000e+00  -6.7000000e+01  -1.0635000e+03  -9.5400000e+02   2.0175000e+03  -1.3240000e+03  -1.3000000e+03  -1.2980000e+03  -1.3260000e+03  -1.3150000e+03  -1.3310000e+03
   7.4000000e+01   6.0000000e+00  -6.8000000e+01  -1.0640000e+03  -9.5300000e+02   2.0170000e+03  -1.3276667e+03  -1.2996667e+03  -1.2976667e+03  -1.3256667e+03  -1.3146667e+03  -1.3306667e+03
   7.4000000e+01   7.0000000e+00  -6.7000000e+01  -1.0645000e+03  -9.5350000e+02   2.0180000e+03  -1.3283333e+03  -1.2973333e+03  -1.2953333e+03  -1.3243333e+03  -1.3123333e+03  -1.3283333e+03
   7.4000000e+01   7.0000000e+00  -6.7000000e+01  -1.0645000e+03  -9.5350000e+02   2.0180000e+03  -1.3283333e+03  -1.2963333e+03  -1.2943333e+03  -1.3233333e+03  -1.3113333e+03  -1.3273333e+03
   7.6000000e+01   8.0000000e+00  -6.8000000e+01  -1.0660000e+03  -9.5200000e+02   2.0180000e+03  -1.3283333e+03  -1.2963333e+03  -1.2923333e+03  -1.3213333e+03  -1.3103333e+03  -1.3263333e+03
   7.6000000e+01   8.0000000e+00  -6.8000000e+01  -1.0660000e+03  -9.5200000e+02   2.0180000e+03  -1.3293333e+03  -1.2943333e+03  -1.2913333e+03  -1.3203333e+03  -1.3093333e+03  -1.3253333e+03
   7.7000000e+01   9.0000000e+00  -6.8000000e+01  -1.0670000e+03  -9.5150000e+02   2.0185000e+03  -1.3306667e+03  -1.2936667e+03  -1.2906667e+03  -1.3196667e+03  -1.3086667e+03  -1.3246667e+03
   7.7000000e+01   9.0000000e+00  -6.8000000e+01  -1.0670000e+03  -9.5150000e+02   2.0185000e+03  -1.3306667e+03  -1.2916667e+03  -1.2896667e+03  -1.3186667e+03  -1.3076667e+03  -1.3226667e+03
   7.7000000e+01   1.0000000e+01  -6.7000000e+01  -1.0675000e+03  -9.5200000e+02   2.0195000e+03  -1.3313333e+03  -1.2903333e+03  -1.2883333e+03  -1.3163333e+03  -1.3053333e+03  -1.3213333e+03
   7.8000000e+01   1.1000000e+01  -6.7000000e+01  -1.0685000e+03  -9.5150000e+02   2.0200000e+03  -1.3316667e+03  -1.2896667e+03  -1.2876667e+03  -1.3166667e+03  -1.3046667e+03  -1.3206667e+03
   7.9000000e+01   1.1000000e+01  -6.8000000e+01  -1.0690000e+03  -9.5050000e+02   2.0195000e+03  -1.3323333e+03  -1.2893333e+03  -1.2853333e+03  -1.3143333e+03  -1.3023333e+03  -1.3193333e+03
   8.0000000e+01   1.2000000e+01  -6.8000000e+01  -1.0700000e+03  -9.5000000e+02   2.0200000e+03  -1.3336667e+03  -1.2886667e+03  -1.2856667e+03  -1.3136667e+03  -1.3006667e+03  -1.3186667e+03
   8.1000000e+01   1.3000000e+01  -6.8000000e+01  -1.0710000e+03  -9.4950000e+02   2.0205000e+03  -1.3340000e+03  -1.2860000e+03  -1.2840000e+03  -1.3110000e+03  -1.2990000e+03  -1.3160000e+03
   8.1000000e+01   1.3000000e+01  -6.8000000e+01  -1.0710000e+03  -9.4950000e+02   2.0205000e+03  -1.3360000e+03  -1.2840000e+03  -1.2830000e+03  -1.3110000e+03  -1.2980000e+03  -1.3150000e+03
   8.2000000e+01   1.4000000e+01  -6.8000000e+01  -1.0720000e+03  -9.4900000e+02   2.0210000e+03  -1.3373333e+03  -1.2833333e+03  -1.2813333e+03  -1.3093333e+03  -1.2953333e+03  -1.3133333e+03
   8.4000000e+01   1.5000000e+01  -6.9000000e+01  -1.0735000e+03  -9.4750000e+02   2.0210000e+03  -1.3383333e+03  -1.2833333e+03  -1.2803333e+03  -1.3073333e+03  -1.2943333e+03  -1.3113333e+03
   8.5000000e+01   1.6000000e+01  -6.9000000e+01  -1.0745000e+03  -9.4700000e+02   2.0215000e+03  -1.3396667e+03  -1.2816667e+03  -1.2806667e+03  -1.3066667e+03  -1.2916667e+03  -1.3096667e+03
   8.6000000e+01   1.7000000e+01  -6.9000000e+01  -1.0755000e+03  -9.4650000e+02   2.0220000e+03  -1.3390000e+03  -1.2790000e+03  -1.2780000e+03  -1.3050000e+03  -1.2900000e+03  -1.3080000e+03
   8.8000000e+01   1.8000000e+01  -7.0000000e+01  -1.0770000e+03  -9.4500000e+02   2.0220000e+03  -1.3400000e+03  -1.2760000e+03  -1.2760000e+03  -1.3030000e+03  -1.2880000e+03  -1.3060000e+03
   8.9000000e+01   1.9000000e+01  -7.0000000e+01  -1.0780000e+03  -9.4450000e+02   2.0225000e+03  -1.3413333e+03  -1.2753333e+03  -1.2753333e+03  -1.3023333e+03  -1.2863333e+03  -1.3043333e+03
   9.1000000e+01   2.1000000e+01  -7.0000000e+01  -1.0800000e+03  -9.4350000e+02   2.0235000e+03  -1.3420000e+03  -1.2730000e+03  -1.2730000e+03  -1.3000000e+03  -1.2840000e+03  -1.3020000e+03
   9.2000000e+01   2.2000000e+01  -7.0000000e+01  -1.0810000e+03  -9.4300000e+02   2.0240000e+03  -1.3433333e+03  -1.2713333e+03  -1.2733333e+03  -1.2993333e+03  -1.2823333e+03  -1.3003333e+03
   9.3000000e+01   2.3000000e+01  -7.0000000e+01  -1.0820000e+03  -9.4250000e+02   2.0245000e+03  -1.3446667e+03  -1.2676667e+03  -1.2706667e+03  -1.2966667e+03  -1.2796667e+03  -1.2976667e+03
   9.5000000e+01   2.5000000e+01  -7.0000000e+01  -1.0840000e+03  -9.4150000e+02   2.0255000e+03  -1.3453333e+03  -1.2653333e+03  -1.2683333e+03  -1.2963333e+03  -1.2783333e+03  -1.2943333e+03
   9.6000000e+01   2.6000000e+01  -7.0000000e+01  -1.0850000e+03  -9.4100000e+02   2.0260000e+03  -1.3476667e+03  -1.2636667e+03  -1.2666667e+03  -1.2936667e+03  -1.2756667e+03  -1.2926667e+03
   9.9000000e+01   2.8000000e+01  -7.1000000e+01  -1.0875000e+03  -9.3900000e+02   2.0265000e+03  -1.3480000e+03  -1.2610000e+03  -1.2660000e+03  -1.2920000e+03  -1.2720000e+03  -1.2900000e+03
   1.0000000e+02   3.0000000e+01  -7.0000000e+01  -1.0890000e+03  -9.3900000e+02   2.0280000e+03  -1.3500000e+03  -1.2580000e+03  -1.2630000e+03  -1.2890000e+03  -1.2690000e+03  -1.2860000e+03
   1.0100000e+02   3.1000000e+01  -7.0000000e+01  -1.0900000e+03  -9.3850000e+02   2.0285000e+03  -1.3513333e+03  -1.2563333e+03  -1.2623333e+03  -1.2873333e+03  -1.2673333e+03  -1.2843333e+03
   1.0300000e+02   3.3000000e+01  -7.0000000e+01  -1.0920000e+03  -9.3750000e+02   2.0295000e+03  -1.3540000e+03  -1.2540000e+03  -1.2590000e+03  -1.2860000e+03  -1.2640000e+03  -1.2800000e+03
   1.0500000e+02   3.5000000e+01  -7.0000000e+01  -1.0940000e+03  -9.3650000e+02   2.0305000e+03  -1.3556667e+03  -1.2536667e+03  -1.2596667e+03  -1.2846667e+03  -1.2626667e+03  -1.2786667e+03
   1.0800000e+02   3.8000000e+01  -7.0000000e+01  -1.0970000e+03  -9.3500000e+02   2.0320000e+03  -1.3576667e+03  -1.2506667e+03  -1.2576667e+03  -1.2816667e+03  -1.2586667e+03  -1.2746667e+03
   1.1000000e+02   3.9000000e+01  -7.1000000e+01  -1.0985000e+03  -9.3350000e+02   2.0320000e+03  -1.3596667e+03  -1.2496667e+03  -1.2566667e+03  -1.2796667e+03  -1.2566667e+03  -1.2726667e+03
   1.1100000e+02   4.1000000e+01  -7.0000000e+01  -1.1000000e+03  -9.3350000e+02   2.0335000e+03  -1.3616667e+03  -1.2476667e+03  -1.2556667e+03  -1.2776667e+03  -1.2526667e+03  -1.2676667e+03
   1.1300000e+02   4.3000000e+01  -7.0000000e+01  -1.1020000e+03  -9.3250000e+02   2.0345000e+03  -1.3633333e+03  -1.2453333e+03  -1.2553333e+03  -1.2753333e+03  -1.2503333e+03  -1.2653333e+03
   1.1500000e+02   4.6000000e+01  -6.9000000e+01  -1.1045000e+03  -9.3200000e+02   2.0365000e+03  -1.3656667e+03  -1.2446667e+03  -1.2536667e+03  -1.2736667e+03  -1.2466667e+03  -1.2626667e+03
   1.1700000e+02   4.8000000e+01  -6.9000000e+01  -1.1065000e+03  -9.3100000e+02   2.0375000e+03  -1.3673333e+03  -1.2433333e+03  -1.2533333e+03  -1.2723333e+03  -1.2443333e+03  -1.2593333e+03
   1.2000000e+02   5.1000000e+01  -6.9000000e+01  -1.1095000e+03  -9.2950000e+02   2.0390000e+03  -1.3703333e+03  -1.2423333e+03  -1.2543333e+03  -1.2703333e+03  -1.2403333e+03  -1.2553333e+03
   1.2200000e+02   5.3000000e+01  -6.9000000e+01  -1.1115000e+03  -9.2850000e+02   2.0400000e+03  -1.3720000e+03  -1.2410000e+03  -1.2530000e+03  -1.2690000e+03  -1.2370000e+03  -1.2540000e+03
   1.2300000e+02   5.6000000e+01  -6.7000000e+01  -1.1135000e+03  -9.2900000e+02   2.0425000e+03  -1.3766667e+03  -1.2406667e+03  -1.2536667e+03  -1.2676667e+03  -1.2346667e+03  -1.2506667e+03
   1.2500000e+02   5.8000000e+01  -6.7000000e+01  -1.1155000e+03  -9.2800000e+02   2.0435000e+03  -1.3783333e+03  -1.2403333e+03  -1.2523333e+03  -1.2663333e+03  -1.2323333e+03  -1.2473333e+03
   1.2700000e+02   6.1000000e+01  -6.6000000e+01  -1.1180000e+03  -9.2750000e+02   2.0455000e+03  -1.3826667e+03  -1.2396667e+03  -1.2536667e+03  -1.2646667e+03  -1.2286667e+03  -1.2446667e+03
   1.2900000e+02   6.3000000e+01  -6.6000000e+01  -1.1200000e+03  -9.2650000e+02   2.0465000e+03  -1.3853333e+03  -1.2403333e+03  -1.2533333e+03  -1.2643333e+03  -1.2273333e+03  -1.2433333e+03
   1.3100000e+02   6.6000000e+01  -6.5000000e+01  -1.1225000e+03  -9.2600000e+02   2.0485000e+03  -1.3896667e+03  -1.2406667e+03  -1.2556667e+03  -1.2646667e+03  -1.2236667e+03  -1.2396667e+03
   1.3200000e+02   6.8000000e+01  -6.4000000e+01  -1.1240000e+03  -9.2600000e+02   2.0500000e+03  -1.3926667e+03  -1.2406667e+03  -1.2556667e+03  -1.2636667e+03  -1.2216667e+03  -1.2376667e+03
   1.3400000e+02   7.2000000e+01  -6.2000000e+01  -1.1270000e+03  -9.2600000e+02   2.0530000e+03  -1.3966667e+03  -1.2416667e+03  -1.2566667e+03  -1.2626667e+03  -1.2186667e+03  -1.2356667e+03
   1.3500000e+02   7.4000000e+01  -6.1000000e+01  -1.1285000e+03  -9.2600000e+02   2.0545000e+03  -1.3996667e+03  -1.2436667e+03  -1.2576667e+03  -1.2616667e+03  -1.2166667e+03  -1.2336667e+03
   1.3500000e+02   7.6000000e+01  -5.9000000e+01  -1.1295000e+03  -9.2700000e+02   2.0565000e+03  -1.4030000e+03  -1.2440000e+03  -1.2590000e+03  -1.2620000e+03  -1.2140000e+03  -1.2300000e+03
   1.3700000e+02   7.8000000e+01  -5.9000000e+01  -1.1315000e+03  -9.2600000e+02   2.0575000e+03  -1.4066667e+03  -1.2456667e+03  -1.2616667e+03  -1.2626667e+03  -1.2136667e+03  -1.2296667e+03
   1.3800000e+02   8.1000000e+01  -5.7000000e+01  -1.1335000e+03  -9.2650000e+02   2.0600000e+03  -1.4093333e+03  -1.2493333e+03  -1.2643333e+03  -1.2623333e+03  -1.2113333e+03  -1.2273333e+03
   1.3900000e+02   8.3000000e+01  -5.6000000e+01  -1.1350000e+03  -9.2650000e+02   2.0615000e+03  -1.4113333e+03  -1.2513333e+03  -1.2663333e+03  -1.2633333e+03  -1.2103333e+03  -1.2263333e+03
   1.3900000e+02   8.5000000e+01  -5.4000000e+01  -1.1360000e+03  -9.2750000e+02   2.0635000e+03  -1.4136667e+03  -1.2546667e+03  -1.2696667e+03  -1.2656667e+03  -1.2096667e+03  -1.2256667e+03
   1.3700000e+02   8.6000000e+01  -5.1000000e+01  -1.1355000e+03  -9.3000000e+02   2.0655000e+03  -1.4150000e+03  -1.2570000e+03  -1.2710000e+03  -1.2660000e+03  -1.2080000e+03  -1.2240000e+03
   1.3800000e+02   8.9000000e+01  -4.9000000e+01  -1.1375000e+03  -9.3050000e+02   2.0680000e+03  -1.4176667e+03  -1.2626667e+03  -1.2766667e+03  -1.2686667e+03  -1.2086667e+03  -1.2236667e+03
   1.3800000e+02   9.0000000e+01  -4.8000000e+01  -1.1380000e+03  -9.3100000e+02   2.0690000e+03  -1.4193333e+03  -1.2653333e+03  -1.2793333e+03  -1.2693333e+03  -1.2083333e+03  -1.2233333e+03
   1.3900000e+02   9.3000000e+01  -4.6000000e+01  -1.1400000e+03  -9.3150000e+02   2.0715000e+03  -1.4200000e+03  -1.2710000e+03  -1.2840000e+03  -1.2730000e+03  -1.2090000e+03  -1.2230000e+03
   1.3800000e+02   9.3000000e+01  -4.5000000e+01  -1.1395000e+03  -9.3250000e+02   2.0720000e+03  -1.4213333e+03  -1.2743333e+03  -1.2873333e+03  -1.2743333e+03  -1.2103333e+03  -1.2243333e+03
   1.3800000e+02   9.5000000e+01  -4.3000000e+01  -1.1405000e+03  -9.3350000e+02   2.0740000e+03  -1.4226667e+03  -1.2816667e+03  -1.2926667e+03  -1.2786667e+03  -1.2116667e+03  -1.2266667e+03
   1.3700000e+02   9.6000000e+01  -4.1000000e+01  -1.1405000e+03  -9.3500000e+02   2.0755000e+03  -1.4236667e+03  -1.2856667e+03  -1.2976667e+03  -1.2806667e+03  -1.2136667e+03  -1.2276667e+03
   1.3700000e+02   9.7000000e+01  -4.0000000e+01  -1.1410000e+03  -9.3550000e+02   2.0765000e+03  -1.4233333e+03  -1.2923333e+03  -1.3023333e+03  -1.2833333e+03  -1.2163333e+03  -1.2293333e+03
   1.3500000e+02   9.6000000e+01  -3.9000000e+01  -1.1395000e+03  -9.3700000e+02   2.0765000e+03  -1.4233333e+03  -1.2963333e+03  -1.3053333e+03  -1.2863333e+03  -1.2173333e+03  -1.2323333e+03
   1.3200000e+02   9.6000000e+01  -3.6000000e+01  -1.1380000e+03  -9.4000000e+02   2.0780000e+03  -1.4233333e+03  -1.3033333e+03  -1.3103333e+03  -1.2903333e+03  -1.2213333e+03  -1.2353333e+03
   1.3000000e+02   9.5000000e+01  -3.5000000e+01  -1.1365000e+03  -9.4150000e+02   2.0780000e+03  -1.4233333e+03  -1.3073333e+03  -1.3143333e+03  -1.2923333e+03  -1.2243333e+03  -1.2373333e+03
   1.2700000e+02   9.3000000e+01  -3.4000000e+01  -1.1340000e+03  -9.4350000e+02   2.0775000e+03  -1.4220000e+03  -1.3140000e+03  -1.3180000e+03  -1.2970000e+03  -1.2280000e+03  -1.2420000e+03
   1.2400000e+02   9.1000000e+01  -3.3000000e+01  -1.1315000e+03  -9.4550000e+02   2.0770000e+03  -1.4206667e+03  -1.3186667e+03  -1.3216667e+03  -1.2996667e+03  -1.2326667e+03  -1.2466667e+03
   1.2000000e+02   8.8000000e+01  -3.2000000e+01  -1.1280000e+03  -9.4800000e+02   2.0760000e+03  -1.4180000e+03  -1.3250000e+03  -1.3250000e+03  -1.3050000e+03  -1.2380000e+03  -1.2510000e+03
   1.1800000e+02   8.6000000e+01  -3.2000000e+01  -1.1260000e+03  -9.4900000e+02   2.0750000e+03  -1.4163333e+03  -1.3293333e+03  -1.3293333e+03  -1.3073333e+03  -1.2423333e+03  -1.2563333e+03
   1.1400000e+02   8.2000000e+01  -3.2000000e+01  -1.1220000e+03  -9.5100000e+02   2.0730000e+03  -1.4130000e+03  -1.3350000e+03  -1.3330000e+03  -1.3120000e+03  -1.2490000e+03  -1.2620000e+03
   1.1000000e+02   7.9000000e+01  -3.1000000e+01  -1.1185000e+03  -9.5350000e+02   2.0720000e+03  -1.4103333e+03  -1.3383333e+03  -1.3353333e+03  -1.3153333e+03  -1.2533333e+03  -1.2663333e+03
   1.0500000e+02   7.4000000e+01  -3.1000000e+01  -1.1135000e+03  -9.5600000e+02   2.0695000e+03  -1.4056667e+03  -1.3436667e+03  -1.3396667e+03  -1.3206667e+03  -1.2606667e+03  -1.2736667e+03
   1.0100000e+02   7.0000000e+01  -3.1000000e+01  -1.1095000e+03  -9.5800000e+02   2.0675000e+03  -1.4023333e+03  -1.3463333e+03  -1.3413333e+03  -1.3233333e+03  -1.2653333e+03  -1.2783333e+03
   9.8000000e+01   6.6000000e+01  -3.2000000e+01  -1.1060000e+03  -9.5900000e+02   2.0650000e+03  -1.3976667e+03  -1.3516667e+03  -1.3446667e+03  -1.3286667e+03  -1.2736667e+03  -1.2866667e+03
   9.5000000e+01   6.3000000e+01  -3.2000000e+01  -1.1030000e+03  -9.6050000e+02   2.0635000e+03  -1.3936667e+03  -1.3556667e+03  -1.3476667e+03  -1.3316667e+03  -1.2786667e+03  -1.2916667e+03
   9.0000000e+01   5.7000000e+01  -3.3000000e+01  -1.0975000e+03  -9.6250000e+02   2.0600000e+03  -1.3883333e+03  -1.3583333e+03  -1.3503333e+03  -1.3353333e+03  -1.2853333e+03  -1.2983333e+03
   8.6000000e+01   5.4000000e+01  -3.2000000e+01  -1.0940000e+03  -9.6500000e+02   2.0590000e+03  -1.3846667e+03  -1.3606667e+03  -1.3526667e+03  -1.3386667e+03  -1.2906667e+03  -1.3036667e+03
   8.1000000e+01   4.8000000e+01  -3.3000000e+01  -1.0885000e+03  -9.6700000e+02   2.0555000e+03  -1.3783333e+03  -1.3633333e+03  -1.3543333e+03  -1.3443333e+03  -1.2973333e+03  -1.3113333e+03
   7.9000000e+01   4.5000000e+01  -3.4000000e+01  -1.0860000e+03  -9.6750000e+02   2.0535000e+03  -1.3750000e+03  -1.3650000e+03  -1.3550000e+03  -1.3470000e+03  -1.3030000e+03  -1.3150000e+03
   7.3000000e+01   3.8000000e+01  -3.5000000e+01  -1.0795000e+03  -9.7000000e+02   2.0495000e+03  -1.3693333e+03  -1.3683333e+03  -1.3583333e+03  -1.3513333e+03  -1.3093333e+03  -1.3233333e+03
   7.1000000e+01   3.5000000e+01  -3.6000000e+01  -1.0770000e+03  -9.7050000e+02   2.0475000e+03  -1.3660000e+03  -1.3690000e+03  -1.3590000e+03  -1.3530000e+03  -1.3140000e+03  -1.3280000e+03
   6.7000000e+01   2.9000000e+01  -3.8000000e+01  -1.0720000e+03  -9.7150000e+02   2.0435000e+03  -1.3613333e+03  -1.3703333e+03  -1.3613333e+03  -1.3573333e+03  -1.3203333e+03  -1.3343333e+03
   6.5000000e+01   2.6000000e+01  -3.9000000e+01  -1.0695000e+03  -9.7200000e+02   2.0415000e+03  -1.3580000e+03  -1.3710000e+03  -1.3610000e+03  -1.3590000e+03  -1.3240000e+03  -1.3380000e+03
   6.0000000e+01   2.0000000e+01  -4.0000000e+01  -1.0640000e+03  -9.7400000e+02   2.0380000e+03  -1.3526667e+03  -1.3726667e+03  -1.3626667e+03  -1.3636667e+03  -1.3296667e+03  -1.3436667e+03
   5.8000000e+01   1.7000000e+01  -4.1000000e+01  -1.0615000e+03  -9.7450000e+02   2.0360000e+03  -1.3493333e+03  -1.3723333e+03  -1.3633333e+03  -1.3653333e+03  -1.3333333e+03  -1.3473333e+03
   5.5000000e+01   1.2000000e+01  -4.3000000e+01  -1.0575000e+03  -9.7500000e+02   2.0325000e+03  -1.3440000e+03  -1.3730000e+03  -1.3640000e+03  -1.3680000e+03  -1.3380000e+03  -1.3520000e+03
   5.3000000e+01   9.0000000e+00  -4.4000000e+01  -1.0550000e+03  -9.7550000e+02   2.0305000e+03  -1.3426667e+03  -1.3736667e+03  -1.3646667e+03  -1.3706667e+03  -1.3416667e+03  -1.3556667e+03
   5.0000000e+01   5.0000000e+00  -4.5000000e+01  -1.0515000e+03  -9.7650000e+02   2.0280000e+03  -1.3380000e+03  -1.3740000e+03  -1.3650000e+03  -1.3720000e+03  -1.3450000e+03  -1.3600000e+03
   4.8000000e+01   2.0000000e+00  -4.6000000e+01  -1.0490000e+03  -9.7700000e+02   2.0260000e+03  -1.3366667e+03  -1.3736667e+03  -1.3656667e+03  -1.3746667e+03  -1.3486667e+03  -1.3626667e+03
   4.6000000e+01  -2.0000000e+00  -4.8000000e+01  -1.0460000e+03  -9.7700000e+02   2.0230000e+03  -1.3326667e+03  -1.3746667e+03  -1.3656667e+03  -1.3766667e+03  -1.3526667e+03  -1.3666667e+03
   4.5000000e+01  -4.0000000e+00  -4.9000000e+01  -1.0445000e+03  -9.7700000e+02   2.0215000e+03  -1.3306667e+03  -1.3746667e+03  -1.3656667e+03  -1.3786667e+03  -1.3546667e+03  -1.3696667e+03
   4.4000000e+01  -7.0000000e+00  -5.1000000e+01  -1.0425000e+03  -9.7650000e+02   2.0190000e+03  -1.3270000e+03  -1.3740000e+03  -1.3660000e+03  -1.3800000e+03  -1.3580000e+03  -1.3720000e+03
   4.3000000e+01  -9.0000000e+00  -5.2000000e+01  -1.0410000e+03  -9.7650000e+02   2.0175000e+03  -1.3250000e+03  -1.3740000e+03  -1.3670000e+03  -1.3810000e+03  -1.3590000e+03  -1.3730000e+03
   4.2000000e+01  -1.1000000e+01  -5.3000000e+01  -1.0395000e+03  -9.7650000e+02   2.0160000e+03  -1.3230000e+03  -1.3740000e+03  -1.3670000e+03  -1.3810000e+03  -1.3620000e+03  -1.3750000e+03
   4.2000000e+01  -1.2000000e+01  -5.4000000e+01  -1.0390000e+03  -9.7600000e+02   2.0150000e+03  -1.3233333e+03  -1.3743333e+03  -1.3673333e+03  -1.3823333e+03  -1.3643333e+03  -1.3773333e+03
   4.0000000e+01  -1.4000000e+01  -5.4000000e+01  -1.0370000e+03  -9.7700000e+02   2.0140000e+03  -1.3216667e+03  -1.3736667e+03  -1.3686667e+03  -1.3846667e+03  -1.3656667e+03  -1.3796667e+03
   4.0000000e+01  -1.5000000e+01  -5.5000000e+01  -1.0365000e+03  -9.7650000e+02   2.0130000e+03  -1.3200000e+03  -1.3730000e+03  -1.3680000e+03  -1.3850000e+03  -1.3660000e+03  -1.3800000e+03
   3.9000000e+01  -1.7000000e+01  -5.6000000e+01  -1.0350000e+03  -9.7650000e+02   2.0115000e+03  -1.3180000e+03  -1.3730000e+03  -1.3680000e+03  -1.3850000e+03  -1.3670000e+03  -1.3810000e+03
   3.8000000e+01  -1.8000000e+01  -5.6000000e+01  -1.0340000e+03  -9.7700000e+02   2.0110000e+03  -1.3176667e+03  -1.3736667e+03  -1.3686667e+03  -1.3866667e+03  -1.3686667e+03  -1.3816667e+03
   3.8000000e+01  -1.9000000e+01  -5.7000000e+01  -1.0335000e+03  -9.7650000e+02   2.0100000e+03  -1.3160000e+03  -1.3730000e+03  -1.3690000e+03  -1.3860000e+03  -1.3690000e+03  -1.3830000e+03
   3.8000000e+01  -1.9000000e+01  -5.7000000e+01  -1.0335000e+03  -9.7650000e+02   2.0100000e+03  -1.3150000e+03  -1.3720000e+03  -1.3690000e+03  -1.3870000e+03  -1.3690000e+03  -1.3830000e+03
   3.8000000e+01  -2.0000000e+01  -5.8000000e+01  -1.0330000e+03  -9.7600000e+02   2.0090000e+03  -1.3143333e+03  -1.3723333e+03  -1.3693333e+03  -1.3873333e+03  -1.3693333e+03  -1.3833333e+03
   3.6000000e+01  -2.1000000e+01  -5.7000000e+01  -1.0315000e+03  -9.7750000e+02   2.0090000e+03  -1.3143333e+03  -1.3723333e+03  -1.3693333e+03  -1.3873333e+03  -1.3693333e+03  -1.3843333e+03
   3.7000000e+01  -2.1000000e+01  -5.8000000e+01  -1.0320000e+03  -9.7650000e+02   2.0085000e+03  -1.3130000e+03  -1.3720000e+03  -1.3690000e+03  -1.3870000e+03  -1.3680000e+03  -1.3840000e+03
   3.7000000e+01  -2.1000000e+01  -5.8000000e+01  -1.0320000e+03  -9.7650000e+02   2.0085000e+03  -1.3130000e+03  -1.3720000e+03  -1.3690000e+03  -1.3870000e+03  -1.3680000e+03  -1.3830000e+03
   3.6000000e+01  -2.2000000e+01  -5.8000000e+01  -1.0310000e+03  -9.7700000e+02   2.0080000e+03  -1.3126667e+03  -1.3716667e+03  -1.3696667e+03  -1.3876667e+03  -1.3696667e+03  -1.3836667e+03
   3.7000000e+01  -2.2000000e+01  -5.9000000e+01  -1.0315000e+03  -9.7600000e+02   2.0075000e+03  -1.3123333e+03  -1.3713333e+03  -1.3693333e+03  -1.3873333e+03  -1.3693333e+03  -1.3833333e+03
   3.7000000e+01  -2.3000000e+01  -6.0000000e+01  -1.0310000e+03  -9.7550000e+02   2.0065000e+03  -1.3126667e+03  -1.3716667e+03  -1.3686667e+03  -1.3866667e+03  -1.3686667e+03  -1.3836667e+03
   3.7000000e+01  -2.3000000e+01  -6.0000000e+01  -1.0310000e+03  -9.7550000e+02   2.0065000e+03  -1.3126667e+03  -1.3706667e+03  -1.3696667e+03  -1.3866667e+03  -1.3696667e+03  -1.3836667e+03
   3.6000000e+01  -2.3000000e+01  -5.9000000e+01  -1.0305000e+03  -9.7650000e+02   2.0070000e+03  -1.3110000e+03  -1.3700000e+03  -1.3690000e+03  -1.3860000e+03  -1.3690000e+03  -1.3840000e+03
   3.7000000e+01  -2.2000000e+01  -5.9000000e+01  -1.0315000e+03  -9.7600000e+02   2.0075000e+03  -1.3113333e+03  -1.3703333e+03  -1.3683333e+03  -1.3863333e+03  -1.3693333e+03  -1.3843333e+03
   3.7000000e+01  -2.3000000e+01  -6.0000000e+01  -1.0310000e+03  -9.7550000e+02   2.0065000e+03  -1.3126667e+03  -1.3706667e+03  -1.3686667e+03  -1.3866667e+03  -1.3696667e+03  -1.3836667e+03
   3.7000000e+01  -2.3000000e+01  -6.0000000e+01  -1.0310000e+03  -9.7550000e+02   2.0065000e+03  -1.3126667e+03  -1.3706667e+03  -1.3686667e+03  -1.3866667e+03  -1.3696667e+03  -1.3846667e+03
   3.7000000e+01  -2.3000000e+01  -6.0000000e+01  -1.0310000e+03  -9.7550000e+02   2.0065000e+03  -1.3126667e+03  -1.3696667e+03  -1.3686667e+03  -1.3856667e+03  -1.3696667e+03  -1.3846667e+03
   3.7000000e+01  -2.3000000e+01  -6.0000000e+01  -1.0310000e+03  -9.7550000e+02   2.0065000e+03  -1.3126667e+03  -1.3696667e+03  -1.3696667e+03  -1.3856667e+03  -1.3696667e+03  -1.3846667e+03
   3.8000000e+01  -2.2000000e+01  -6.0000000e+01  -1.0320000e+03  -9.7500000e+02   2.0070000e+03  -1.3120000e+03  -1.3690000e+03  -1.3690000e+03  -1.3850000e+03  -1.3690000e+03  -1.3840000e+03
   3.6000000e+01  -2.3000000e+01  -5.9000000e+01  -1.0305000e+03  -9.7650000e+02   2.0070000e+03  -1.3120000e+03  -1.3690000e+03  -1.3690000e+03  -1.3850000e+03  -1.3690000e+03  -1.3830000e+03
   3.7000000e+01  -2.3000000e+01  -6.0000000e+01  -1.0310000e+03  -9.7550000e+02   2.0065000e+03  -1.3116667e+03  -1.3686667e+03  -1.3686667e+03  -1.3856667e+03  -1.3696667e+03  -1.3836667e+03
   3.7000000e+01  -2.3000000e+01  -6.0000000e+01  -1.0310000e+03  -9.7550000e+02   2.0065000e+03  -1.3116667e+03  -1.3686667e+03  -1.3686667e+03  -1.3846667e+03  -1.3696667e+03  -1.3836667e+03
   3.7000000e+01  -2.3000000e+01  -6.0000000e+01  -1.0310000e+03  -9.7550000e+02   2.0065000e+03  -1.3116667e+03  -1.3686667e+03  -1.3686667e+03  -1.3846667e+03  -1.3686667e+03  -1.3836667e+03
   3.8000000e+01  -2.3000000e+01  -6.1000000e+01  -1.0315000e+03  -9.7450000e+02   2.0060000e+03  -1.3113333e+03  -1.3673333e+03  -1.3673333e+03  -1.3843333e+03  -1.3683333e+03  -1.3823333e+03
   3.9000000e+01  -2.2000000e+01  -6.1000000e+01  -1.0325000e+03  -9.7400000e+02   2.0065000e+03  -1.3106667e+03  -1.3676667e+03  -1.3676667e+03  -1.3846667e+03  -1.3676667e+03  -1.3826667e+03
   3.9000000e+01  -2.3000000e+01  -6.2000000e+01  -1.0320000e+03  -9.7350000e+02   2.0055000e+03  -1.3100000e+03  -1.3660000e+03  -1.3660000e+03  -1.3830000e+03  -1.3670000e+03  -1.3810000e+03
   3.8000000e+01  -2.3000000e+01  -6.1000000e+01  -1.0315000e+03  -9.7450000e+02   2.0060000e+03  -1.3103333e+03  -1.3663333e+03  -1.3663333e+03  -1.3823333e+03  -1.3663333e+03  -1.3813333e+03
   3.9000000e+01  -2.3000000e+01  -6.2000000e+01  -1.0320000e+03  -9.7350000e+02   2.0055000e+03  -1.3090000e+03  -1.3650000e+03  -1.3650000e+03  -1.3820000e+03  -1.3660000e+03  -1.3800000e+03
   3.9000000e+01  -2.3000000e+01  -6.2000000e+01  -1.0320000e+03  -9.7350000e+02   2.0055000e+03  -1.3090000e+03  -1.3650000e+03  -1.3640000e+03  -1.3810000e+03  -1.3650000e+03  -1.3800000e+03
   4.0000000e+01  -2.3000000e+01  -6.3000000e+01  -1.0325000e+03  -9.7250000e+02   2.0050000e+03  -1.3106667e+03  -1.3646667e+03  -1.3646667e+03  -1.3816667e+03  -1.3656667e+03  -1.3806667e+03
   3.9000000e+01  -2.4000000e+01  -6.3000000e+01  -1.0315000e+03  -9.7300000e+02   2.0045000e+03  -1.3103333e+03  -1.3643333e+03  -1.3643333e+03  -1.3813333e+03  -1.3653333e+03  -1.3783333e+03
   4.0000000e+01  -2.4000000e+01  -6.4000000e+01  -1.0320000e+03  -9.7200000e+02   2.0040000e+03  -1.3100000e+03  -1.3640000e+03  -1.3640000e+03  -1.3810000e+03  -1.3650000e+03  -1.3780000e+03
   3.9000000e+01  -2.4000000e+01  -6.3000000e+01  -1.0315000e+03  -9.7300000e+02   2.0045000e+03  -1.3103333e+03  -1.3633333e+03  -1.3633333e+03  -1.3803333e+03  -1.3643333e+03  -1.3783333e+03
   3.9000000e+01  -2.4000000e+01  -6.3000000e+01  -1.0315000e+03  -9.7300000e+02   2.0045000e+03  -1.3103333e+03  -1.3623333e+03  -1.3633333e+03  -1.3803333e+03  -1.3643333e+03  -1.3783333e+03
   3.9000000e+01  -2.4000000e+01  -6.3000000e+01  -1.0315000e+03  -9.7300000e+02   2.0045000e+03  -1.3103333e+03  -1.3623333e+03  -1.3623333e+03  -1.3793333e+03  -1.3643333e+03  -1.3773333e+03
   3.9000000e+01  -2.4000000e+01  -6.3000000e+01  -1.0315000e+03  -9.7300000e+02   2.0045000e+03  -1.3103333e+03  -1.3613333e+03  -1.3623333e+03  -1.3793333e+03  -1.3633333e+03  -1.3773333e+03
   4.0000000e+01  -2.4000000e+01  -6.4000000e+01  -1.0320000e+03  -9.7200000e+02   2.0040000e+03  -1.3110000e+03  -1.3610000e+03  -1.3610000e+03  -1.3790000e+03  -1.3630000e+03  -1.3770000e+03
   4.0000000e+01  -2.4000000e+01  -6.4000000e+01  -1.0320000e+03  -9.7200000e+02   2.0040000e+03  -1.3120000e+03  -1.3600000e+03  -1.3610000e+03  -1.3790000e+03  -1.3630000e+03  -1.3770000e+03
   4.0000000e+01  -2.4000000e+01  -6.4000000e+01  -1.0320000e+03  -9.7200000e+02   2.0040000e+03  -1.3120000e+03  -1.3600000e+03  -1.3610000e+03  -1.3780000e+03  -1.3620000e+03  -1.3770000e+03
   3.9000000e+01  -2.4000000e+01  -6.3000000e+01  -1.0315000e+03  -9.7300000e+02   2.0045000e+03  -1.3113333e+03  -1.3593333e+03  -1.3603333e+03  -1.3773333e+03  -1.3623333e+03  -1.3763333e+03
   4.0000000e+01  -2.3000000e+01  -6.3000000e+01  -1.0325000e+03  -9.7250000e+02   2.0050000e+03  -1.3116667e+03  -1.3586667e+03  -1.3596667e+03  -1.3766667e+03  -1.3626667e+03  -1.3766667e+03
   4.1000000e+01  -2.2000000e+01  -6.3000000e+01  -1.0335000e+03  -9.7200000e+02   2.0055000e+03  -1.3110000e+03  -1.3580000e+03  -1.3590000e+03  -1.3760000e+03  -1.3610000e+03  -1.3760000e+03
   4.1000000e+01  -2.2000000e+01  -6.3000000e+01  -1.0335000e+03  -9.7200000e+02   2.0055000e+03  -1.3110000e+03  -1.3580000e+03  -1.3580000e+03  -1.3750000e+03  -1.3610000e+03  -1.3760000e+03
   4.1000000e+01  -2.3000000e+01  -6.4000000e+01  -1.0330000e+03  -9.7150000e+02   2.0045000e+03  -1.3113333e+03  -1.3583333e+03  -1.3583333e+03  -1.3753333e+03  -1.3613333e+03  -1.3763333e+03
   4.1000000e+01  -2.3000000e+01  -6.4000000e+01  -1.0330000e+03  -9.7150000e+02   2.0045000e+03  -1.3113333e+03  -1.3573333e+03  -1.3583333e+03  -1.3753333e+03  -1.3613333e+03  -1.3753333e+03
   4.0000000e+01  -2.3000000e+01  -6.3000000e+01  -1.0325000e+03  -9.7250000e+02   2.0050000e+03  -1.3116667e+03  -1.3566667e+03  -1.3576667e+03  -1.3756667e+03  -1.3606667e+03  -1.3756667e+03
   4.0000000e+01  -2.3000000e+01  -6.3000000e+01  -1.0325000e+03  -9.7250000e+02   2.0050000e+03  -1.3116667e+03  -1.3576667e+03  -1.3576667e+03  -1.3746667e+03  -1.3606667e+03  -1.3756667e+03
   4.1000000e+01  -2.3000000e+01  -6.4000000e+01  -1.0330000e+03  -9.7150000e+02   2.0045000e+03  -1.3113333e+03  -1.3573333e+03  -1.3573333e+03  -1.3743333e+03  -1.3603333e+03  -1.3753333e+03
   4.0000000e+01  -2.4000000e+01  -6.4000000e+01  -1.0320000e+03  -9.7200000e+02   2.0040000e+03  -1.3110000e+03  -1.3570000e+03  -1.3570000e+03  -1.3740000e+03  -1.3600000e+03  -1.3750000e+03
   4.1000000e+01  -2.4000000e+01  -6.5000000e+01  -1.0325000e+03  -9.7100000e+02   2.0035000e+03  -1.3116667e+03  -1.3566667e+03  -1.3576667e+03  -1.3756667e+03  -1.3606667e+03  -1.3756667e+03
   4.1000000e+01  -2.4000000e+01  -6.5000000e+01  -1.0325000e+03  -9.7100000e+02   2.0035000e+03  -1.3116667e+03  -1.3566667e+03  -1.3586667e+03  -1.3756667e+03  -1.3606667e+03  -1.3756667e+03
   4.1000000e+01  -2.4000000e+01  -6.5000000e+01  -1.0325000e+03  -9.7100000e+02   2.0035000e+03  -1.3116667e+03  -1.3566667e+03  -1.3576667e+03  -1.3756667e+03  -1.3616667e+03  -1.3756667e+03
   4.1000000e+01  -2.4000000e+01  -6.5000000e+01  -1.0325000e+03  -9.7100000e+02   2.0035000e+03  -1.3126667e+03  -1.3566667e+03  -1.3576667e+03  -1.3756667e+03  -1.3616667e+03  -1.3756667e+03
   4.1000000e+01  -2.4000000e+01  -6.5000000e+01  -1.0325000e+03  -9.7100000e+02   2.0035000e+03  -1.3126667e+03  -1.3566667e+03  -1.3576667e+03  -1.3756667e+03  -1.3616667e+03  -1.3766667e+03
   4.2000000e+01  -2.4000000e+01  -6.6000000e+01  -1.0330000e+03  -9.7000000e+02   2.0030000e+03  -1.3123333e+03  -1.3563333e+03  -1.3583333e+03  -1.3763333e+03  -1.3623333e+03  -1.3763333e+03
   4.2000000e+01  -2.4000000e+01  -6.6000000e+01  -1.0330000e+03  -9.7000000e+02   2.0030000e+03  -1.3123333e+03  -1.3563333e+03  -1.3583333e+03  -1.3763333e+03  -1.3623333e+03  -1.3763333e+03
   4.2000000e+01  -2.4000000e+01  -6.6000000e+01  -1.0330000e+03  -9.7000000e+02   2.0030000e+03  -1.3123333e+03  -1.3563333e+03  -1.3583333e+03  -1.3773333e+03  -1.3633333e+03  -1.3763333e+03
   4.2000000e+01  -2.4000000e+01  -6.6000000e+01  -1.0330000e+03  -9.7000000e+02   2.0030000e+03  -1.3113333e+03  -1.3563333e+03  -1.3583333e+03  -1.3773333e+03  -1.3633333e+03  -1.3773333e+03
   4.3000000e+01  -2.3000000e+01  -6.6000000e+01  -1.0340000e+03  -9.6950000e+02   2.0035000e+03  -1.3116667e+03  -1.3576667e+03  -1.3586667e+03  -1.3786667e+03  -1.3646667e+03  -1.3776667e+03
   4.2000000e+01  -2.4000000e+01  -6.6000000e+01  -1.0330000e+03  -9.7000000e+02   2.0030000e+03  -1.3113333e+03  -1.3573333e+03  -1.3583333e+03  -1.3783333e+03  -1.3643333e+03  -1.3773333e+03
   4.1000000e+01  -2.4000000e+01  -6.5000000e+01  -1.0325000e+03  -9.7100000e+02   2.0035000e+03  -1.3106667e+03  -1.3576667e+03  -1.3596667e+03  -1.3786667e+03  -1.3646667e+03  -1.3786667e+03
   4.1000000e+01  -2.4000000e+01  -6.5000000e+01  -1.0325000e+03  -9.7100000e+02   2.0035000e+03  -1.3096667e+03  -1.3576667e+03  -1.3596667e+03  -1.3786667e+03  -1.3656667e+03  -1.3786667e+03
   4.0000000e+01  -2.5000000e+01  -6.5000000e+01  -1.0315000e+03  -9.7150000e+02   2.0030000e+03  -1.3083333e+03  -1.3583333e+03  -1.3593333e+03  -1.3793333e+03  -1.3653333e+03  -1.3783333e+03
   4.0000000e+01  -2.5000000e+01  -6.5000000e+01  -1.0315000e+03  -9.7150000e+02   2.0030000e+03  -1.3083333e+03  -1.3573333e+03  -1.3593333e+03  -1.3793333e+03  -1.3653333e+03  -1.3783333e+03
   4.0000000e+01  -2.5000000e+01  -6.5000000e+01  -1.0315000e+03  -9.7150000e+02   2.0030000e+03  -1.3073333e+03  -1.3573333e+03  -1.3593333e+03  -1.3793333e+03  -1.3653333e+03  -1.3783333e+03
   4.0000000e+01  -2.5000000e+01  -6.5000000e+01  -1.0315000e+03  -9.7150000e+02   2.0030000e+03  -1.3073333e+03  -1.3583333e+03  -1.3603333e+03  -1.3793333e+03  -1.3653333e+03  -1.3773333e+03
   3.9000000e+01  -2.5000000e+01  -6.4000000e+01  -1.0310000e+03  -9.7250000e+02   2.0035000e+03  -1.3086667e+03  -1.3586667e+03  -1.3596667e+03  -1.3796667e+03  -1.3656667e+03  -1.3776667e+03
   3.9000000e+01  -2.5000000e+01  -6.4000000e+01  -1.0310000e+03  -9.7250000e+02   2.0035000e+03  -1.3086667e+03  -1.3586667e+03  -1.3606667e+03  -1.3796667e+03  -1.3656667e+03  -1.3776667e+03
   3.9000000e+01  -2.5000000e+01  -6.4000000e+01  -1.0310000e+03  -9.7250000e+02   2.0035000e+03  -1.3096667e+03  -1.3586667e+03  -1.3606667e+03  -1.3806667e+03  -1.3656667e+03  -1.3786667e+03
   3.9000000e+01  -2.5000000e+01  -6.4000000e+01  -1.0310000e+03  -9.7250000e+02   2.0035000e+03  -1.3096667e+03  -1.3586667e+03  -1.3616667e+03  -1.3806667e+03  -1.3656667e+03  -1.3786667e+03
   3.9000000e+01  -2.5000000e+01  -6.4000000e+01  -1.0310000e+03  -9.7250000e+02   2.0035000e+03  -1.3106667e+03  -1.3596667e+03  -1.3616667e+03  -1.3816667e+03  -1.3656667e+03  -1.3786667e+03
   3.9000000e+01  -2.5000000e+01  -6.4000000e+01  -1.0310000e+03  -9.7250000e+02   2.0035000e+03  -1.3106667e+03  -1.3596667e+03  -1.3616667e+03  -1.3816667e+03  -1.3656667e+03  -1.3786667e+03
   3.8000000e+01  -2.5000000e+01  -6.3000000e+01  -1.0305000e+03  -9.7350000e+02   2.0040000e+03  -1.3100000e+03  -1.3590000e+03  -1.3620000e+03  -1.3800000e+03  -1.3650000e+03  -1.3790000e+03
   3.8000000e+01  -2.5000000e+01  -6.3000000e+01  -1.0305000e+03  -9.7350000e+02   2.0040000e+03  -1.3100000e+03  -1.3600000e+03  -1.3620000e+03  -1.3810000e+03  -1.3660000e+03  -1.3790000e+03
   3.9000000e+01  -2.4000000e+01  -6.3000000e+01  -1.0315000e+03  -9.7300000e+02   2.0045000e+03  -1.3113333e+03  -1.3613333e+03  -1.3633333e+03  -1.3823333e+03  -1.3663333e+03  -1.3803333e+03
   4.1000000e+01  -2.3000000e+01  -6.4000000e+01  -1.0330000e+03  -9.7150000e+02   2.0045000e+03  -1.3113333e+03  -1.3613333e+03  -1.3643333e+03  -1.3823333e+03  -1.3663333e+03  -1.3803333e+03
   4.0000000e+01  -2.4000000e+01  -6.4000000e+01  -1.0320000e+03  -9.7200000e+02   2.0040000e+03  -1.3100000e+03  -1.3620000e+03  -1.3640000e+03  -1.3830000e+03  -1.3670000e+03  -1.3810000e+03
   3.8000000e+01  -2.4000000e+01  -6.2000000e+01  -1.0310000e+03  -9.7400000e+02   2.0050000e+03  -1.3106667e+03  -1.3636667e+03  -1.3656667e+03  -1.3846667e+03  -1.3676667e+03  -1.3816667e+03
   3.9000000e+01  -2.3000000e+01  -6.2000000e+01  -1.0320000e+03  -9.7350000e+02   2.0055000e+03  -1.3100000e+03  -1.3630000e+03  -1.3660000e+03  -1.3840000e+03  -1.3680000e+03  -1.3820000e+03
   3.9000000e+01  -2.3000000e+01  -6.2000000e+01  -1.0320000e+03  -9.7350000e+02   2.0055000e+03  -1.3090000e+03  -1.3630000e+03  -1.3670000e+03  -1.3850000e+03  -1.3680000e+03  -1.3820000e+03
   3.9000000e+01  -2.3000000e+01  -6.2000000e+01  -1.0320000e+03  -9.7350000e+02   2.0055000e+03  -1.3090000e+03  -1.3640000e+03  -1.3670000e+03  -1.3860000e+03  -1.3680000e+03  -1.3820000e+03
   3.9000000e+01  -2.3000000e+01  -6.2000000e+01  -1.0320000e+03  -9.7350000e+02   2.0055000e+03  -1.3090000e+03  -1.3640000e+03  -1.3670000e+03  -1.3860000e+03  -1.3680000e+03  -1.3830000e+03
   4.0000000e+01  -2.3000000e+01  -6.3000000e+01  -1.0325000e+03  -9.7250000e+02   2.0050000e+03  -1.3116667e+03  -1.3646667e+03  -1.3686667e+03  -1.3876667e+03  -1.3696667e+03  -1.3836667e+03
   3.9000000e+01  -2.3000000e+01  -6.2000000e+01  -1.0320000e+03  -9.7350000e+02   2.0055000e+03  -1.3110000e+03  -1.3640000e+03  -1.3680000e+03  -1.3870000e+03  -1.3690000e+03  -1.3830000e+03
   4.0000000e+01  -2.3000000e+01  -6.3000000e+01  -1.0325000e+03  -9.7250000e+02   2.0050000e+03  -1.3106667e+03  -1.3646667e+03  -1.3696667e+03  -1.3886667e+03  -1.3696667e+03  -1.3846667e+03
   4.0000000e+01  -2.3000000e+01  -6.3000000e+01  -1.0325000e+03  -9.7250000e+02   2.0050000e+03  -1.3106667e+03  -1.3646667e+03  -1.3706667e+03  -1.3886667e+03  -1.3696667e+03  -1.3846667e+03
   4.0000000e+01  -2.3000000e+01  -6.3000000e+01  -1.0325000e+03  -9.7250000e+02   2.0050000e+03  -1.3116667e+03  -1.3646667e+03  -1.3706667e+03  -1.3896667e+03  -1.3696667e+03  -1.3856667e+03
   4.0000000e+01  -2.3000000e+01  -6.3000000e+01  -1.0325000e+03  -9.7250000e+02   2.0050000e+03  -1.3116667e+03  -1.3646667e+03  -1.3706667e+03  -1.3896667e+03  -1.3706667e+03  -1.3856667e+03
   4.1000000e+01  -2.3000000e+01  -6.4000000e+01  -1.0330000e+03  -9.7150000e+02   2.0045000e+03  -1.3113333e+03  -1.3643333e+03  -1.3713333e+03  -1.3903333e+03  -1.3703333e+03  -1.3853333e+03
   4.1000000e+01  -2.3000000e+01  -6.4000000e+01  -1.0330000e+03  -9.7150000e+02   2.0045000e+03  -1.3123333e+03  -1.3653333e+03  -1.3713333e+03  -1.3903333e+03  -1.3713333e+03  -1.3853333e+03
   4.0000000e+01  -2.3000000e+01  -6.3000000e+01  -1.0325000e+03  -9.7250000e+02   2.0050000e+03  -1.3126667e+03  -1.3656667e+03  -1.3726667e+03  -1.3916667e+03  -1.3716667e+03  -1.3856667e+03
   4.0000000e+01  -2.3000000e+01  -6.3000000e+01  -1.0325000e+03  -9.7250000e+02   2.0050000e+03  -1.3126667e+03  -1.3666667e+03  -1.3726667e+03  -1.3916667e+03  -1.3716667e+03  -1.3856667e+03
   4.1000000e+01  -2.2000000e+01  -6.3000000e+01  -1.0335000e+03  -9.7200000e+02   2.0055000e+03  -1.3130000e+03  -1.3660000e+03  -1.3720000e+03  -1.3900000e+03  -1.3710000e+03  -1.3860000e+03
   4.0000000e+01  -2.2000000e+01  -6.2000000e+01  -1.0330000e+03  -9.7300000e+02   2.0060000e+03  -1.3143333e+03  -1.3673333e+03  -1.3733333e+03  -1.3913333e+03  -1.3723333e+03  -1.3863333e+03
   4.0000000e+01  -2.2000000e+01  -6.2000000e+01  -1.0330000e+03  -9.7300000e+02   2.0060000e+03  -1.3143333e+03  -1.3683333e+03  -1.3743333e+03  -1.3913333e+03  -1.3723333e+03  -1.3873333e+03
   4.0000000e+01  -2.2000000e+01  -6.2000000e+01  -1.0330000e+03  -9.7300000e+02   2.0060000e+03  -1.3143333e+03  -1.3683333e+03  -1.3743333e+03  -1.3913333e+03  -1.3723333e+03  -1.3873333e+03
   3.9000000e+01  -2.2000000e+01  -6.1000000e+01  -1.0325000e+03  -9.7400000e+02   2.0065000e+03  -1.3146667e+03  -1.3686667e+03  -1.3746667e+03  -1.3926667e+03  -1.3726667e+03  -1.3876667e+03
   3.7000000e+01  -2.3000000e+01  -6.0000000e+01  -1.0310000e+03  -9.7550000e+02   2.0065000e+03  -1.3166667e+03  -1.3686667e+03  -1.3746667e+03  -1.3926667e+03  -1.3726667e+03  -1.3886667e+03
   3.6000000e+01  -2.3000000e+01  -5.9000000e+01  -1.0305000e+03  -9.7650000e+02   2.0070000e+03  -1.3160000e+03  -1.3680000e+03  -1.3750000e+03  -1.3920000e+03  -1.3730000e+03  -1.3880000e+03
   3.6000000e+01  -2.3000000e+01  -5.9000000e+01  -1.0305000e+03  -9.7650000e+02   2.0070000e+03  -1.3170000e+03  -1.3690000e+03  -1.3750000e+03  -1.3930000e+03  -1.3730000e+03  -1.3880000e+03
   3.6000000e+01  -2.3000000e+01  -5.9000000e+01  -1.0305000e+03  -9.7650000e+02   2.0070000e+03  -1.3160000e+03  -1.3690000e+03  -1.3760000e+03  -1.3930000e+03  -1.3730000e+03  -1.3880000e+03
   3.6000000e+01  -2.3000000e+01  -5.9000000e+01  -1.0305000e+03  -9.7650000e+02   2.0070000e+03  -1.3160000e+03  -1.3690000e+03  -1.3760000e+03  -1.3930000e+03  -1.3730000e+03  -1.3880000e+03
   3.6000000e+01  -2.3000000e+01  -5.9000000e+01  -1.0305000e+03  -9.7650000e+02   2.0070000e+03  -1.3150000e+03  -1.3690000e+03  -1.3760000e+03  -1.3940000e+03  -1.3730000e+03  -1.3890000e+03
   3.5000000e+01  -2.3000000e+01  -5.8000000e+01  -1.0300000e+03  -9.7750000e+02   2.0075000e+03  -1.3153333e+03  -1.3703333e+03  -1.3763333e+03  -1.3943333e+03  -1.3733333e+03  -1.3893333e+03
   3.6000000e+01  -2.3000000e+01  -5.9000000e+01  -1.0305000e+03  -9.7650000e+02   2.0070000e+03  -1.3150000e+03  -1.3700000e+03  -1.3770000e+03  -1.3950000e+03  -1.3730000e+03  -1.3890000e+03
   3.6000000e+01  -2.3000000e+01  -5.9000000e+01  -1.0305000e+03  -9.7650000e+02   2.0070000e+03  -1.3160000e+03  -1.3700000e+03  -1.3780000e+03  -1.3950000e+03  -1.3730000e+03  -1.3890000e+03
   3.5000000e+01  -2.4000000e+01  -5.9000000e+01  -1.0295000e+03  -9.7700000e+02   2.0065000e+03  -1.3156667e+03  -1.3716667e+03  -1.3786667e+03  -1.3946667e+03  -1.3736667e+03  -1.3896667e+03
   3.6000000e+01  -2.4000000e+01  -6.0000000e+01  -1.0300000e+03  -9.7600000e+02   2.0060000e+03  -1.3153333e+03  -1.3713333e+03  -1.3783333e+03  -1.3943333e+03  -1.3733333e+03  -1.3893333e+03
   3.6000000e+01  -2.4000000e+01  -6.0000000e+01  -1.0300000e+03  -9.7600000e+02   2.0060000e+03  -1.3153333e+03  -1.3713333e+03  -1.3793333e+03  -1.3943333e+03  -1.3733333e+03  -1.3883333e+03
   3.7000000e+01  -2.4000000e+01  -6.1000000e+01  -1.0305000e+03  -9.7500000e+02   2.0055000e+03  -1.3150000e+03  -1.3710000e+03  -1.3790000e+03  -1.3940000e+03  -1.3730000e+03  -1.3870000e+03
   3.7000000e+01  -2.3000000e+01  -6.0000000e+01  -1.0310000e+03  -9.7550000e+02   2.0065000e+03  -1.3156667e+03  -1.3716667e+03  -1.3806667e+03  -1.3946667e+03  -1.3726667e+03  -1.3876667e+03
   3.6000000e+01  -2.4000000e+01  -6.0000000e+01  -1.0300000e+03  -9.7600000e+02   2.0060000e+03  -1.3153333e+03  -1.3723333e+03  -1.3803333e+03  -1.3943333e+03  -1.3723333e+03  -1.3873333e+03
   3.7000000e+01  -2.4000000e+01  -6.1000000e+01  -1.0305000e+03  -9.7500000e+02   2.0055000e+03  -1.3150000e+03  -1.3710000e+03  -1.3800000e+03  -1.3940000e+03  -1.3720000e+03  -1.3880000e+03
   3.7000000e+01  -2.4000000e+01  -6.1000000e+01  -1.0305000e+03  -9.7500000e+02   2.0055000e+03  -1.3150000e+03  -1.3720000e+03  -1.3800000e+03  -1.3940000e+03  -1.3720000e+03  -1.3880000e+03
   3.6000000e+01  -2.5000000e+01  -6.1000000e+01  -1.0295000e+03  -9.7550000e+02   2.0050000e+03  -1.3166667e+03  -1.3716667e+03  -1.3806667e+03  -1.3946667e+03  -1.3736667e+03  -1.3876667e+03
   3.6000000e+01  -2.5000000e+01  -6.1000000e+01  -1.0295000e+03  -9.7550000e+02   2.0050000e+03  -1.3176667e+03  -1.3716667e+03  -1.3806667e+03  -1.3946667e+03  -1.3736667e+03  -1.3876667e+03
   3.5000000e+01  -2.5000000e+01  -6.0000000e+01  -1.0290000e+03  -9.7650000e+02   2.0055000e+03  -1.3170000e+03  -1.3710000e+03  -1.3800000e+03  -1.3940000e+03  -1.3730000e+03  -1.3870000e+03
   3.5000000e+01  -2.5000000e+01  -6.0000000e+01  -1.0290000e+03  -9.7650000e+02   2.0055000e+03  -1.3170000e+03  -1.3700000e+03  -1.3790000e+03  -1.3940000e+03  -1.3730000e+03  -1.3880000e+03
   3.5000000e+01  -2.5000000e+01  -6.0000000e+01  -1.0290000e+03  -9.7650000e+02   2.0055000e+03  -1.3180000e+03  -1.3700000e+03  -1.3790000e+03  -1.3940000e+03  -1.3730000e+03  -1.3870000e+03
   3.5000000e+01  -2.5000000e+01  -6.0000000e+01  -1.0290000e+03  -9.7650000e+02   2.0055000e+03  -1.3180000e+03  -1.3700000e+03  -1.3790000e+03  -1.3940000e+03  -1.3730000e+03  -1.3870000e+03
   3.5000000e+01  -2.5000000e+01  -6.0000000e+01  -1.0290000e+03  -9.7650000e+02   2.0055000e+03  -1.3180000e+03  -1.3700000e+03  -1.3790000e+03  -1.3930000e+03  -1.3730000e+03  -1.3870000e+03
   3.5000000e+01  -2.5000000e+01  -6.0000000e+01  -1.0290000e+03  -9.7650000e+02   2.0055000e+03  -1.3180000e+03  -1.3690000e+03  -1.3790000e+03  -1.3940000e+03  -1.3720000e+03  -1.3870000e+03
   3.4000000e+01  -2.5000000e+01  -5.9000000e+01  -1.0285000e+03  -9.7750000e+02   2.0060000e+03  -1.3193333e+03  -1.3693333e+03  -1.3793333e+03  -1.3933333e+03  -1.3723333e+03  -1.3883333e+03
   3.3000000e+01  -2.5000000e+01  -5.8000000e+01  -1.0280000e+03  -9.7850000e+02   2.0065000e+03  -1.3196667e+03  -1.3696667e+03  -1.3796667e+03  -1.3946667e+03  -1.3726667e+03  -1.3886667e+03
   3.3000000e+01  -2.5000000e+01  -5.8000000e+01  -1.0280000e+03  -9.7850000e+02   2.0065000e+03  -1.3196667e+03  -1.3706667e+03  -1.3796667e+03  -1.3946667e+03  -1.3726667e+03  -1.3886667e+03
   3.4000000e+01  -2.5000000e+01  -5.9000000e+01  -1.0285000e+03  -9.7750000e+02   2.0060000e+03  -1.3193333e+03  -1.3703333e+03  -1.3803333e+03  -1.3943333e+03  -1.3723333e+03  -1.3883333e+03
   3.5000000e+01  -2.4000000e+01  -5.9000000e+01  -1.0295000e+03  -9.7700000e+02   2.0065000e+03  -1.3186667e+03  -1.3706667e+03  -1.3806667e+03  -1.3946667e+03  -1.3726667e+03  -1.3876667e+03
   3.5000000e+01  -2.4000000e+01  -5.9000000e+01  -1.0295000e+03  -9.7700000e+02   2.0065000e+03  -1.3186667e+03  -1.3716667e+03  -1.3806667e+03  -1.3946667e+03  -1.3726667e+03  -1.3866667e+03
   3.4000000e+01  -2.4000000e+01  -5.8000000e+01  -1.0290000e+03  -9.7800000e+02   2.0070000e+03  -1.3180000e+03  -1.3710000e+03  -1.3800000e+03  -1.3940000e+03  -1.3720000e+03  -1.3860000e+03
   3.4000000e+01  -2.4000000e+01  -5.8000000e+01  -1.0290000e+03  -9.7800000e+02   2.0070000e+03  -1.3180000e+03  -1.3710000e+03  -1.3810000e+03  -1.3940000e+03  -1.3720000e+03  -1.3860000e+03
   3.5000000e+01  -2.4000000e+01  -5.9000000e+01  -1.0295000e+03  -9.7700000e+02   2.0065000e+03  -1.3176667e+03  -1.3716667e+03  -1.3816667e+03  -1.3946667e+03  -1.3726667e+03  -1.3876667e+03
   3.6000000e+01  -2.4000000e+01  -6.0000000e+01  -1.0300000e+03  -9.7600000e+02   2.0060000e+03  -1.3173333e+03  -1.3713333e+03  -1.3813333e+03  -1.3953333e+03  -1.3713333e+03  -1.3873333e+03
   3.6000000e+01  -2.4000000e+01  -6.0000000e+01  -1.0300000e+03  -9.7600000e+02   2.0060000e+03  -1.3173333e+03  -1.3723333e+03  -1.3813333e+03  -1.3953333e+03  -1.3713333e+03  -1.3863333e+03
   3.6000000e+01  -2.4000000e+01  -6.0000000e+01  -1.0300000e+03  -9.7600000e+02   2.0060000e+03  -1.3173333e+03  -1.3723333e+03  -1.3813333e+03  -1.3953333e+03  -1.3713333e+03  -1.3863333e+03
   3.6000000e+01  -2.4000000e+01  -6.0000000e+01  -1.0300000e+03  -9.7600000e+02   2.0060000e+03  -1.3163333e+03  -1.3713333e+03  -1.3813333e+03  -1.3943333e+03  -1.3713333e+03  -1.3863333e+03
   3.7000000e+01  -2.4000000e+01  -6.1000000e+01  -1.0305000e+03  -9.7500000e+02   2.0055000e+03  -1.3160000e+03  -1.3710000e+03  -1.3810000e+03  -1.3940000e+03  -1.3710000e+03  -1.3870000e+03
   3.8000000e+01  -2.4000000e+01  -6.2000000e+01  -1.0310000e+03  -9.7400000e+02   2.0050000e+03  -1.3156667e+03  -1.3716667e+03  -1.3826667e+03  -1.3946667e+03  -1.3716667e+03  -1.3876667e+03
   3.8000000e+01  -2.4000000e+01  -6.2000000e+01  -1.0310000e+03  -9.7400000e+02   2.0050000e+03  -1.3156667e+03  -1.3716667e+03  -1.3826667e+03  -1.3946667e+03  -1.3716667e+03  -1.3866667e+03
   3.7000000e+01  -2.4000000e+01  -6.1000000e+01  -1.0305000e+03  -9.7500000e+02   2.0055000e+03  -1.3150000e+03  -1.3710000e+03  -1.3820000e+03  -1.3940000e+03  -1.3700000e+03  -1.3860000e+03
   3.7000000e+01  -2.4000000e+01  -6.1000000e+01  -1.0305000e+03  -9.7500000e+02   2.0055000e+03  -1.3150000e+03  -1.3710000e+03  -1.3820000e+03  -1.3940000e+03  -1.3710000e+03  -1.3860000e+03
   3.7000000e+01  -2.4000000e+01  -6.1000000e+01  -1.0305000e+03  -9.7500000e+02   2.0055000e+03  -1.3160000e+03  -1.3710000e+03  -1.3820000e+03  -1.3940000e+03  -1.3710000e+03  -1.3860000e+03
   3.8000000e+01  -2.4000000e+01  -6.2000000e+01  -1.0310000e+03  -9.7400000e+02   2.0050000e+03  -1.3166667e+03  -1.3716667e+03  -1.3826667e+03  -1.3946667e+03  -1.3706667e+03  -1.3866667e+03
   3.7000000e+01  -2.5000000e+01  -6.2000000e+01  -1.0300000e+03  -9.7450000e+02   2.0045000e+03  -1.3163333e+03  -1.3713333e+03  -1.3823333e+03  -1.3933333e+03  -1.3703333e+03  -1.3863333e+03
   3.8000000e+01  -2.4000000e+01  -6.2000000e+01  -1.0310000e+03  -9.7400000e+02   2.0050000e+03  -1.3166667e+03  -1.3716667e+03  -1.3826667e+03  -1.3936667e+03  -1.3706667e+03  -1.3866667e+03
   3.7000000e+01  -2.4000000e+01  -6.1000000e+01  -1.0305000e+03  -9.7500000e+02   2.0055000e+03  -1.3160000e+03  -1.3710000e+03  -1.3810000e+03  -1.3930000e+03  -1.3700000e+03  -1.3850000e+03
   3.7000000e+01  -2.4000000e+01  -6.1000000e+01  -1.0305000e+03  -9.7500000e+02   2.0055000e+03  -1.3170000e+03  -1.3710000e+03  -1.3810000e+03  -1.3930000e+03  -1.3700000e+03  -1.3840000e+03
   3.7000000e+01  -2.4000000e+01  -6.1000000e+01  -1.0305000e+03  -9.7500000e+02   2.0055000e+03  -1.3170000e+03  -1.3720000e+03  -1.3820000e+03  -1.3930000e+03  -1.3700000e+03  -1.3850000e+03
   3.7000000e+01  -2.5000000e+01  -6.2000000e+01  -1.0300000e+03  -9.7450000e+02   2.0045000e+03  -1.3173333e+03  -1.3713333e+03  -1.3823333e+03  -1.3933333e+03  -1.3703333e+03  -1.3843333e+03
   3.8000000e+01  -2.4000000e+01  -6.2000000e+01  -1.0310000e+03  -9.7400000e+02   2.0050000e+03  -1.3186667e+03  -1.3716667e+03  -1.3816667e+03  -1.3926667e+03  -1.3706667e+03  -1.3846667e+03
   3.8000000e+01  -2.4000000e+01  -6.2000000e+01  -1.0310000e+03  -9.7400000e+02   2.0050000e+03  -1.3186667e+03  -1.3716667e+03  -1.3816667e+03  -1.3926667e+03  -1.3706667e+03  -1.3846667e+03
   3.7000000e+01  -2.5000000e+01  -6.2000000e+01  -1.0300000e+03  -9.7450000e+02   2.0045000e+03  -1.3183333e+03  -1.3703333e+03  -1.3823333e+03  -1.3933333e+03  -1.3713333e+03  -1.3843333e+03
   3.7000000e+01  -2.5000000e+01  -6.2000000e+01  -1.0300000e+03  -9.7450000e+02   2.0045000e+03  -1.3183333e+03  -1.3713333e+03  -1.3823333e+03  -1.3933333e+03  -1.3713333e+03  -1.3843333e+03
   3.8000000e+01  -2.5000000e+01  -6.3000000e+01  -1.0305000e+03  -9.7350000e+02   2.0040000e+03  -1.3180000e+03  -1.3710000e+03  -1.3820000e+03  -1.3930000e+03  -1.3700000e+03  -1.3840000e+03
   3.8000000e+01  -2.5000000e+01  -6.3000000e+01  -1.0305000e+03  -9.7350000e+02   2.0040000e+03  -1.3170000e+03  -1.3690000e+03  -1.3810000e+03  -1.3930000e+03  -1.3700000e+03  -1.3840000e+03
   3.8000000e+01  -2.5000000e+01  -6.3000000e+01  -1.0305000e+03  -9.7350000e+02   2.0040000e+03  -1.3170000e+03  -1.3690000e+03  -1.3810000e+03  -1.3930000e+03  -1.3700000e+03  -1.3840000e+03
   3.8000000e+01  -2.5000000e+01  -6.3000000e+01  -1.0305000e+03  -9.7350000e+02   2.0040000e+03  -1.3170000e+03  -1.3690000e+03  -1.3810000e+03  -1.3930000e+03  -1.3700000e+03  -1.3840000e+03
   3.8000000e+01  -2.5000000e+01  -6.3000000e+01  -1.0305000e+03  -9.7350000e+02   2.0040000e+03  -1.3180000e+03  -1.3690000e+03  -1.3820000e+03  -1.3930000e+03  -1.3700000e+03  -1.3840000e+03
   3.6000000e+01  -2.6000000e+01  -6.2000000e+01  -1.0290000e+03  -9.7500000e+02   2.0040000e+03  -1.3180000e+03  -1.3690000e+03  -1.3820000e+03  -1.3930000e+03  -1.3700000e+03  -1.3840000e+03
   3.5000000e+01  -2.6000000e+01  -6.1000000e+01  -1.0285000e+03  -9.7600000e+02   2.0045000e+03  -1.3183333e+03  -1.3693333e+03  -1.3813333e+03  -1.3933333e+03  -1.3703333e+03  -1.3843333e+03
   3.6000000e+01  -2.5000000e+01  -6.1000000e+01  -1.0295000e+03  -9.7550000e+02   2.0050000e+03  -1.3186667e+03  -1.3696667e+03  -1.3816667e+03  -1.3936667e+03  -1.3706667e+03  -1.3846667e+03
   3.6000000e+01  -2.5000000e+01  -6.1000000e+01  -1.0295000e+03  -9.7550000e+02   2.0050000e+03  -1.3186667e+03  -1.3686667e+03  -1.3816667e+03  -1.3936667e+03  -1.3706667e+03  -1.3846667e+03
   3.6000000e+01  -2.5000000e+01  -6.1000000e+01  -1.0295000e+03  -9.7550000e+02   2.0050000e+03  -1.3186667e+03  -1.3686667e+03  -1.3816667e+03  -1.3936667e+03  -1.3716667e+03  -1.3846667e+03
   3.6000000e+01  -2.5000000e+01  -6.1000000e+01  -1.0295000e+03  -9.7550000e+02   2.0050000e+03  -1.3186667e+03  -1.3696667e+03  -1.3816667e+03  -1.3936667e+03  -1.3716667e+03  -1.3846667e+03
   3.5000000e+01  -2.5000000e+01  -6.0000000e+01  -1.0290000e+03  -9.7650000e+02   2.0055000e+03  -1.3180000e+03  -1.3690000e+03  -1.3810000e+03  -1.3920000e+03  -1.3700000e+03  -1.3830000e+03
   3.5000000e+01  -2.5000000e+01  -6.0000000e+01  -1.0290000e+03  -9.7650000e+02   2.0055000e+03  -1.3180000e+03  -1.3690000e+03  -1.3810000e+03  -1.3920000e+03  -1.3700000e+03  -1.3830000e+03
   3.5000000e+01  -2.5000000e+01  -6.0000000e+01  -1.0290000e+03  -9.7650000e+02   2.0055000e+03  -1.3190000e+03  -1.3680000e+03  -1.3810000e+03  -1.3920000e+03  -1.3700000e+03  -1.3830000e+03
   3.5000000e+01  -2.5000000e+01  -6.0000000e+01  -1.0290000e+03  -9.7650000e+02   2.0055000e+03  -1.3190000e+03  -1.3680000e+03  -1.3810000e+03  -1.3920000e+03  -1.3700000e+03  -1.3820000e+03
   3.6000000e+01  -2.4000000e+01  -6.0000000e+01  -1.0300000e+03  -9.7600000e+02   2.0060000e+03  -1.3193333e+03  -1.3683333e+03  -1.3813333e+03  -1.3923333e+03  -1.3703333e+03  -1.3823333e+03
   3.6000000e+01  -2.4000000e+01  -6.0000000e+01  -1.0300000e+03  -9.7600000e+02   2.0060000e+03  -1.3193333e+03  -1.3683333e+03  -1.3803333e+03  -1.3923333e+03  -1.3703333e+03  -1.3813333e+03
   3.5000000e+01  -2.5000000e+01  -6.0000000e+01  -1.0290000e+03  -9.7650000e+02   2.0055000e+03  -1.3190000e+03  -1.3680000e+03  -1.3790000e+03  -1.3920000e+03  -1.3700000e+03  -1.3810000e+03
   3.4000000e+01  -2.5000000e+01  -5.9000000e+01  -1.0285000e+03  -9.7750000e+02   2.0060000e+03  -1.3193333e+03  -1.3683333e+03  -1.3793333e+03  -1.3923333e+03  -1.3703333e+03  -1.3813333e+03
   3.5000000e+01  -2.5000000e+01  -6.0000000e+01  -1.0290000e+03  -9.7650000e+02   2.0055000e+03  -1.3190000e+03  -1.3680000e+03  -1.3790000e+03  -1.3920000e+03  -1.3690000e+03  -1.3810000e+03
   3.5000000e+01  -2.5000000e+01  -6.0000000e+01  -1.0290000e+03  -9.7650000e+02   2.0055000e+03  -1.3190000e+03  -1.3680000e+03  -1.3790000e+03  -1.3920000e+03  -1.3690000e+03  -1.3810000e+03
   3.5000000e+01  -2.5000000e+01  -6.0000000e+01  -1.0290000e+03  -9.7650000e+02   2.0055000e+03  -1.3190000e+03  -1.3670000e+03  -1.3790000e+03  -1.3920000e+03  -1.3690000e+03  -1.3810000e+03
   3.5000000e+01  -2.5000000e+01  -6.0000000e+01  -1.0290000e+03  -9.7650000e+02   2.0055000e+03  -1.3190000e+03  -1.3680000e+03  -1.3800000e+03  -1.3920000e+03  -1.3690000e+03  -1.3810000e+03
   3.5000000e+01  -2.5000000e+01  -6.0000000e+01  -1.0290000e+03  -9.7650000e+02   2.0055000e+03  -1.3190000e+03  -1.3680000e+03  -1.3800000e+03  -1.3920000e+03  -1.3690000e+03  -1.3810000e+03
   3.7000000e+01  -2.4000000e+01  -6.1000000e+01  -1.0305000e+03  -9.7500000e+02   2.0055000e+03  -1.3190000e+03  -1.3680000e+03  -1.3800000e+03  -1.3920000e+03  -1.3690000e+03  -1.3810000e+03
   3.6000000e+01  -2.4000000e+01  -6.0000000e+01  -1.0300000e+03  -9.7600000e+02   2.0060000e+03  -1.3193333e+03  -1.3683333e+03  -1.3803333e+03  -1.3923333e+03  -1.3693333e+03  -1.3813333e+03
   3.6000000e+01  -2.4000000e+01  -6.0000000e+01  -1.0300000e+03  -9.7600000e+02   2.0060000e+03  -1.3193333e+03  -1.3673333e+03  -1.3803333e+03  -1.3913333e+03  -1.3693333e+03  -1.3813333e+03
   3.6000000e+01  -2.4000000e+01  -6.0000000e+01  -1.0300000e+03  -9.7600000e+02   2.0060000e+03  -1.3183333e+03  -1.3683333e+03  -1.3803333e+03  -1.3913333e+03  -1.3693333e+03  -1.3813333e+03
   3.7000000e+01  -2.3000000e+01  -6.0000000e+01  -1.0310000e+03  -9.7550000e+02   2.0065000e+03  -1.3186667e+03  -1.3686667e+03  -1.3806667e+03  -1.3916667e+03  -1.3696667e+03  -1.3816667e+03
   3.7000000e+01  -2.3000000e+01  -6.0000000e+01  -1.0310000e+03  -9.7550000e+02   2.0065000e+03  -1.3186667e+03  -1.3686667e+03  -1.3816667e+03  -1.3916667e+03  -1.3696667e+03  -1.3816667e+03
   3.8000000e+01  -2.2000000e+01  -6.0000000e+01  -1.0320000e+03  -9.7500000e+02   2.0070000e+03  -1.3170000e+03  -1.3680000e+03  -1.3800000e+03  -1.3920000e+03  -1.3680000e+03  -1.3810000e+03
   3.8000000e+01  -2.2000000e+01  -6.0000000e+01  -1.0320000e+03  -9.7500000e+02   2.0070000e+03  -1.3180000e+03  -1.3670000e+03  -1.3800000e+03  -1.3920000e+03  -1.3680000e+03  -1.3810000e+03
   3.7000000e+01  -2.2000000e+01  -5.9000000e+01  -1.0315000e+03  -9.7600000e+02   2.0075000e+03  -1.3173333e+03  -1.3683333e+03  -1.3813333e+03  -1.3923333e+03  -1.3683333e+03  -1.3813333e+03
   3.7000000e+01  -2.2000000e+01  -5.9000000e+01  -1.0315000e+03  -9.7600000e+02   2.0075000e+03  -1.3173333e+03  -1.3683333e+03  -1.3813333e+03  -1.3923333e+03  -1.3683333e+03  -1.3813333e+03
   3.8000000e+01  -2.2000000e+01  -6.0000000e+01  -1.0320000e+03  -9.7500000e+02   2.0070000e+03  -1.3160000e+03  -1.3680000e+03  -1.3820000e+03  -1.3920000e+03  -1.3680000e+03  -1.3810000e+03
   3.8000000e+01  -2.2000000e+01  -6.0000000e+01  -1.0320000e+03  -9.7500000e+02   2.0070000e+03  -1.3160000e+03  -1.3680000e+03  -1.3820000e+03  -1.3920000e+03  -1.3680000e+03  -1.3820000e+03
   3.9000000e+01  -2.2000000e+01  -6.1000000e+01  -1.0325000e+03  -9.7400000e+02   2.0065000e+03  -1.3166667e+03  -1.3676667e+03  -1.3816667e+03  -1.3926667e+03  -1.3696667e+03  -1.3826667e+03
   3.9000000e+01  -2.2000000e+01  -6.1000000e+01  -1.0325000e+03  -9.7400000e+02   2.0065000e+03  -1.3156667e+03  -1.3686667e+03  -1.3826667e+03  -1.3926667e+03  -1.3686667e+03  -1.3826667e+03
   3.7000000e+01  -2.3000000e+01  -6.0000000e+01  -1.0310000e+03  -9.7550000e+02   2.0065000e+03  -1.3156667e+03  -1.3686667e+03  -1.3826667e+03  -1.3926667e+03  -1.3686667e+03  -1.3826667e+03
   3.8000000e+01  -2.3000000e+01  -6.1000000e+01  -1.0315000e+03  -9.7450000e+02   2.0060000e+03  -1.3153333e+03  -1.3683333e+03  -1.3833333e+03  -1.3923333e+03  -1.3683333e+03  -1.3813333e+03
   3.8000000e+01  -2.3000000e+01  -6.1000000e+01  -1.0315000e+03  -9.7450000e+02   2.0060000e+03  -1.3163333e+03  -1.3683333e+03  -1.3833333e+03  -1.3923333e+03  -1.3683333e+03  -1.3813333e+03
   3.8000000e+01  -2.3000000e+01  -6.1000000e+01  -1.0315000e+03  -9.7450000e+02   2.0060000e+03  -1.3163333e+03  -1.3683333e+03  -1.3823333e+03  -1.3913333e+03  -1.3683333e+03  -1.3813333e+03
   3.8000000e+01  -2.3000000e+01  -6.1000000e+01  -1.0315000e+03  -9.7450000e+02   2.0060000e+03  -1.3163333e+03  -1.3673333e+03  -1.3813333e+03  -1.3913333e+03  -1.3683333e+03  -1.3813333e+03
   3.8000000e+01  -2.3000000e+01  -6.1000000e+01  -1.0315000e+03  -9.7450000e+02   2.0060000e+03  -1.3163333e+03  -1.3673333e+03  -1.3813333e+03  -1.3903333e+03  -1.3683333e+03  -1.3803333e+03
   3.9000000e+01  -2.2000000e+01  -6.1000000e+01  -1.0325000e+03  -9.7400000e+02   2.0065000e+03  -1.3166667e+03  -1.3686667e+03  -1.3826667e+03  -1.3906667e+03  -1.3686667e+03  -1.3806667e+03
   3.8000000e+01  -2.2000000e+01  -6.0000000e+01  -1.0320000e+03  -9.7500000e+02   2.0070000e+03  -1.3160000e+03  -1.3680000e+03  -1.3820000e+03  -1.3900000e+03  -1.3680000e+03  -1.3800000e+03
   3.7000000e+01  -2.3000000e+01  -6.0000000e+01  -1.0310000e+03  -9.7550000e+02   2.0065000e+03  -1.3166667e+03  -1.3686667e+03  -1.3826667e+03  -1.3906667e+03  -1.3686667e+03  -1.3806667e+03
   3.6000000e+01  -2.3000000e+01  -5.9000000e+01  -1.0305000e+03  -9.7650000e+02   2.0070000e+03  -1.3160000e+03  -1.3670000e+03  -1.3810000e+03  -1.3900000e+03  -1.3680000e+03  -1.3800000e+03
   3.7000000e+01  -2.2000000e+01  -5.9000000e+01  -1.0315000e+03  -9.7600000e+02   2.0075000e+03  -1.3173333e+03  -1.3673333e+03  -1.3813333e+03  -1.3903333e+03  -1.3673333e+03  -1.3803333e+03
   3.7000000e+01  -2.2000000e+01  -5.9000000e+01  -1.0315000e+03  -9.7600000e+02   2.0075000e+03  -1.3173333e+03  -1.3673333e+03  -1.3813333e+03  -1.3903333e+03  -1.3673333e+03  -1.3803333e+03
   3.8000000e+01  -2.1000000e+01  -5.9000000e+01  -1.0325000e+03  -9.7550000e+02   2.0080000e+03  -1.3176667e+03  -1.3666667e+03  -1.3816667e+03  -1.3896667e+03  -1.3676667e+03  -1.3806667e+03
   3.8000000e+01  -2.1000000e+01  -5.9000000e+01  -1.0325000e+03  -9.7550000e+02   2.0080000e+03  -1.3176667e+03  -1.3666667e+03  -1.3816667e+03  -1.3896667e+03  -1.3676667e+03  -1.3806667e+03
   3.6000000e+01  -2.2000000e+01  -5.8000000e+01  -1.0310000e+03  -9.7700000e+02   2.0080000e+03  -1.3176667e+03  -1.3666667e+03  -1.3806667e+03  -1.3896667e+03  -1.3676667e+03  -1.3796667e+03
   3.6000000e+01  -2.2000000e+01  -5.8000000e+01  -1.0310000e+03  -9.7700000e+02   2.0080000e+03  -1.3176667e+03  -1.3656667e+03  -1.3806667e+03  -1.3896667e+03  -1.3676667e+03  -1.3796667e+03
   3.7000000e+01  -2.1000000e+01  -5.8000000e+01  -1.0320000e+03  -9.7650000e+02   2.0085000e+03  -1.3170000e+03  -1.3640000e+03  -1.3800000e+03  -1.3890000e+03  -1.3670000e+03  -1.3790000e+03
   3.7000000e+01  -2.1000000e+01  -5.8000000e+01  -1.0320000e+03  -9.7650000e+02   2.0085000e+03  -1.3170000e+03  -1.3640000e+03  -1.3800000e+03  -1.3890000e+03  -1.3670000e+03  -1.3790000e+03
   3.7000000e+01  -2.1000000e+01  -5.8000000e+01  -1.0320000e+03  -9.7650000e+02   2.0085000e+03  -1.3180000e+03  -1.3640000e+03  -1.3790000e+03  -1.3890000e+03  -1.3660000e+03  -1.3790000e+03
   3.6000000e+01  -2.2000000e+01  -5.8000000e+01  -1.0310000e+03  -9.7700000e+02   2.0080000e+03  -1.3186667e+03  -1.3646667e+03  -1.3796667e+03  -1.3886667e+03  -1.3666667e+03  -1.3796667e+03
   3.6000000e+01  -2.2000000e+01  -5.8000000e+01  -1.0310000e+03  -9.7700000e+02   2.0080000e+03  -1.3186667e+03  -1.3646667e+03  -1.3796667e+03  -1.3886667e+03  -1.3666667e+03  -1.3796667e+03
   3.6000000e+01  -2.2000000e+01  -5.8000000e+01  -1.0310000e+03  -9.7700000e+02   2.0080000e+03  -1.3186667e+03  -1.3646667e+03  -1.3796667e+03  -1.3886667e+03  -1.3666667e+03  -1.3796667e+03
   3.8000000e+01  -2.1000000e+01  -5.9000000e+01  -1.0325000e+03  -9.7550000e+02   2.0080000e+03  -1.3186667e+03  -1.3646667e+03  -1.3796667e+03  -1.3886667e+03  -1.3666667e+03  -1.3796667e+03
   3.8000000e+01  -2.1000000e+01  -5.9000000e+01  -1.0325000e+03  -9.7550000e+02   2.0080000e+03  -1.3186667e+03  -1.3646667e+03  -1.3796667e+03  -1.3886667e+03  -1.3666667e+03  -1.3796667e+03
   3.8000000e+01  -2.1000000e+01  -5.9000000e+01  -1.0325000e+03  -9.7550000e+02   2.0080000e+03  -1.3176667e+03  -1.3646667e+03  -1.3796667e+03  -1.3886667e+03  -1.3666667e+03  -1.3796667e+03
   3.8000000e+01  -2.1000000e+01  -5.9000000e+01  -1.0325000e+03  -9.7550000e+02   2.0080000e+03  -1.3176667e+03  -1.3656667e+03  -1.3806667e+03  -1.3886667e+03  -1.3666667e+03  -1.3796667e+03
   3.8000000e+01  -2.1000000e+01  -5.9000000e+01  -1.0325000e+03  -9.7550000e+02   2.0080000e+03  -1.3176667e+03  -1.3656667e+03  -1.3806667e+03  -1.3886667e+03  -1.3666667e+03  -1.3796667e+03
   3.9000000e+01  -2.1000000e+01  -6.0000000e+01  -1.0330000e+03  -9.7450000e+02   2.0075000e+03  -1.3193333e+03  -1.3653333e+03  -1.3803333e+03  -1.3883333e+03  -1.3663333e+03  -1.3793333e+03
   3.9000000e+01  -2.1000000e+01  -6.0000000e+01  -1.0330000e+03  -9.7450000e+02   2.0075000e+03  -1.3193333e+03  -1.3663333e+03  -1.3803333e+03  -1.3883333e+03  -1.3663333e+03  -1.3783333e+03
   3.8000000e+01  -2.1000000e+01  -5.9000000e+01  -1.0325000e+03  -9.7550000e+02   2.0080000e+03  -1.3196667e+03  -1.3666667e+03  -1.3816667e+03  -1.3886667e+03  -1.3666667e+03  -1.3786667e+03
   3.9000000e+01  -2.1000000e+01  -6.0000000e+01  -1.0330000e+03  -9.7450000e+02   2.0075000e+03  -1.3183333e+03  -1.3663333e+03  -1.3803333e+03  -1.3883333e+03  -1.3663333e+03  -1.3773333e+03
   3.9000000e+01  -2.1000000e+01  -6.0000000e+01  -1.0330000e+03  -9.7450000e+02   2.0075000e+03  -1.3183333e+03  -1.3663333e+03  -1.3803333e+03  -1.3883333e+03  -1.3663333e+03  -1.3773333e+03
   3.9000000e+01  -2.1000000e+01  -6.0000000e+01  -1.0330000e+03  -9.7450000e+02   2.0075000e+03  -1.3173333e+03  -1.3663333e+03  -1.3803333e+03  -1.3883333e+03  -1.3653333e+03  -1.3773333e+03
   4.0000000e+01  -2.0000000e+01  -6.0000000e+01  -1.0340000e+03  -9.7400000e+02   2.0080000e+03  -1.3176667e+03  -1.3666667e+03  -1.3806667e+03  -1.3886667e+03  -1.3656667e+03  -1.3776667e+03
   4.0000000e+01  -2.0000000e+01  -6.0000000e+01  -1.0340000e+03  -9.7400000e+02   2.0080000e+03  -1.3166667e+03  -1.3656667e+03  -1.3796667e+03  -1.3886667e+03  -1.3656667e+03  -1.3776667e+03
   3.9000000e+01  -2.0000000e+01  -5.9000000e+01  -1.0335000e+03  -9.7500000e+02   2.0085000e+03  -1.3150000e+03  -1.3650000e+03  -1.3800000e+03  -1.3880000e+03  -1.3650000e+03  -1.3770000e+03
   3.9000000e+01  -2.0000000e+01  -5.9000000e+01  -1.0335000e+03  -9.7500000e+02   2.0085000e+03  -1.3150000e+03  -1.3650000e+03  -1.3800000e+03  -1.3880000e+03  -1.3650000e+03  -1.3760000e+03
   4.0000000e+01  -2.0000000e+01  -6.0000000e+01  -1.0340000e+03  -9.7400000e+02   2.0080000e+03  -1.3146667e+03  -1.3656667e+03  -1.3806667e+03  -1.3876667e+03  -1.3656667e+03  -1.3766667e+03
   3.9000000e+01  -2.1000000e+01  -6.0000000e+01  -1.0330000e+03  -9.7450000e+02   2.0075000e+03  -1.3133333e+03  -1.3653333e+03  -1.3803333e+03  -1.3873333e+03  -1.3643333e+03  -1.3763333e+03
   3.9000000e+01  -2.1000000e+01  -6.0000000e+01  -1.0330000e+03  -9.7450000e+02   2.0075000e+03  -1.3133333e+03  -1.3653333e+03  -1.3803333e+03  -1.3873333e+03  -1.3653333e+03  -1.3763333e+03
   4.1000000e+01  -2.0000000e+01  -6.1000000e+01  -1.0345000e+03  -9.7300000e+02   2.0075000e+03  -1.3133333e+03  -1.3653333e+03  -1.3803333e+03  -1.3883333e+03  -1.3643333e+03  -1.3763333e+03
   4.1000000e+01  -2.0000000e+01  -6.1000000e+01  -1.0345000e+03  -9.7300000e+02   2.0075000e+03  -1.3123333e+03  -1.3653333e+03  -1.3803333e+03  -1.3883333e+03  -1.3653333e+03  -1.3763333e+03
   4.1000000e+01  -2.0000000e+01  -6.1000000e+01  -1.0345000e+03  -9.7300000e+02   2.0075000e+03  -1.3123333e+03  -1.3653333e+03  -1.3813333e+03  -1.3883333e+03  -1.3643333e+03  -1.3763333e+03
   4.1000000e+01  -2.0000000e+01  -6.1000000e+01  -1.0345000e+03  -9.7300000e+02   2.0075000e+03  -1.3123333e+03  -1.3663333e+03  -1.3813333e+03  -1.3883333e+03  -1.3643333e+03  -1.3763333e+03
   4.2000000e+01  -2.0000000e+01  -6.2000000e+01  -1.0350000e+03  -9.7200000e+02   2.0070000e+03  -1.3130000e+03  -1.3650000e+03  -1.3810000e+03  -1.3880000e+03  -1.3640000e+03  -1.3760000e+03
   4.2000000e+01  -2.0000000e+01  -6.2000000e+01  -1.0350000e+03  -9.7200000e+02   2.0070000e+03  -1.3130000e+03  -1.3650000e+03  -1.3810000e+03  -1.3880000e+03  -1.3640000e+03  -1.3770000e+03
   4.2000000e+01  -2.0000000e+01  -6.2000000e+01  -1.0350000e+03  -9.7200000e+02   2.0070000e+03  -1.3130000e+03  -1.3650000e+03  -1.3800000e+03  -1.3880000e+03  -1.3640000e+03  -1.3770000e+03
   4.2000000e+01  -2.0000000e+01  -6.2000000e+01  -1.0350000e+03  -9.7200000e+02   2.0070000e+03  -1.3130000e+03  -1.3640000e+03  -1.3800000e+03  -1.3880000e+03  -1.3640000e+03  -1.3770000e+03
   4.0000000e+01  -2.0000000e+01  -6.0000000e+01  -1.0340000e+03  -9.7400000e+02   2.0080000e+03  -1.3136667e+03  -1.3646667e+03  -1.3816667e+03  -1.3886667e+03  -1.3646667e+03  -1.3776667e+03
   4.0000000e+01  -2.0000000e+01  -6.0000000e+01  -1.0340000e+03  -9.7400000e+02   2.0080000e+03  -1.3136667e+03  -1.3646667e+03  -1.3806667e+03  -1.3886667e+03  -1.3646667e+03  -1.3776667e+03
   4.0000000e+01  -1.9000000e+01  -5.9000000e+01  -1.0345000e+03  -9.7450000e+02   2.0090000e+03  -1.3133333e+03  -1.3633333e+03  -1.3803333e+03  -1.3883333e+03  -1.3643333e+03  -1.3773333e+03
   4.0000000e+01  -1.9000000e+01  -5.9000000e+01  -1.0345000e+03  -9.7450000e+02   2.0090000e+03  -1.3133333e+03  -1.3633333e+03  -1.3803333e+03  -1.3883333e+03  -1.3643333e+03  -1.3773333e+03
   3.9000000e+01  -1.9000000e+01  -5.8000000e+01  -1.0340000e+03  -9.7550000e+02   2.0095000e+03  -1.3146667e+03  -1.3626667e+03  -1.3796667e+03  -1.3886667e+03  -1.3646667e+03  -1.3776667e+03
   3.8000000e+01  -2.0000000e+01  -5.8000000e+01  -1.0330000e+03  -9.7600000e+02   2.0090000e+03  -1.3133333e+03  -1.3623333e+03  -1.3793333e+03  -1.3873333e+03  -1.3643333e+03  -1.3773333e+03
   3.7000000e+01  -2.0000000e+01  -5.7000000e+01  -1.0325000e+03  -9.7700000e+02   2.0095000e+03  -1.3136667e+03  -1.3626667e+03  -1.3806667e+03  -1.3866667e+03  -1.3636667e+03  -1.3776667e+03
   3.6000000e+01  -2.0000000e+01  -5.6000000e+01  -1.0320000e+03  -9.7800000e+02   2.0100000e+03  -1.3120000e+03  -1.3620000e+03  -1.3800000e+03  -1.3870000e+03  -1.3630000e+03  -1.3760000e+03
   3.6000000e+01  -2.0000000e+01  -5.6000000e+01  -1.0320000e+03  -9.7800000e+02   2.0100000e+03  -1.3120000e+03  -1.3610000e+03  -1.3790000e+03  -1.3870000e+03  -1.3630000e+03  -1.3760000e+03
   3.6000000e+01  -2.0000000e+01  -5.6000000e+01  -1.0320000e+03  -9.7800000e+02   2.0100000e+03  -1.3130000e+03  -1.3610000e+03  -1.3790000e+03  -1.3870000e+03  -1.3630000e+03  -1.3760000e+03
   3.7000000e+01  -2.0000000e+01  -5.7000000e+01  -1.0325000e+03  -9.7700000e+02   2.0095000e+03  -1.3126667e+03  -1.3616667e+03  -1.3796667e+03  -1.3876667e+03  -1.3636667e+03  -1.3766667e+03
   3.7000000e+01  -2.0000000e+01  -5.7000000e+01  -1.0325000e+03  -9.7700000e+02   2.0095000e+03  -1.3126667e+03  -1.3616667e+03  -1.3796667e+03  -1.3876667e+03  -1.3636667e+03  -1.3766667e+03
   3.6000000e+01  -2.1000000e+01  -5.7000000e+01  -1.0315000e+03  -9.7750000e+02   2.0090000e+03  -1.3133333e+03  -1.3613333e+03  -1.3793333e+03  -1.3873333e+03  -1.3633333e+03  -1.3763333e+03
   3.8000000e+01  -2.0000000e+01  -5.8000000e+01  -1.0330000e+03  -9.7600000e+02   2.0090000e+03  -1.3133333e+03  -1.3613333e+03  -1.3793333e+03  -1.3873333e+03  -1.3623333e+03  -1.3763333e+03
   3.7000000e+01  -2.0000000e+01  -5.7000000e+01  -1.0325000e+03  -9.7700000e+02   2.0095000e+03  -1.3146667e+03  -1.3616667e+03  -1.3796667e+03  -1.3866667e+03  -1.3626667e+03  -1.3756667e+03
   3.7000000e+01  -2.0000000e+01  -5.7000000e+01  -1.0325000e+03  -9.7700000e+02   2.0095000e+03  -1.3146667e+03  -1.3616667e+03  -1.3796667e+03  -1.3876667e+03  -1.3626667e+03  -1.3756667e+03
   3.8000000e+01  -2.0000000e+01  -5.8000000e+01  -1.0330000e+03  -9.7600000e+02   2.0090000e+03  -1.3143333e+03  -1.3613333e+03  -1.3803333e+03  -1.3863333e+03  -1.3623333e+03  -1.3753333e+03
   3.8000000e+01  -2.0000000e+01  -5.8000000e+01  -1.0330000e+03  -9.7600000e+02   2.0090000e+03  -1.3143333e+03  -1.3623333e+03  -1.3793333e+03  -1.3863333e+03  -1.3623333e+03  -1.3753333e+03
   3.8000000e+01  -2.0000000e+01  -5.8000000e+01  -1.0330000e+03  -9.7600000e+02   2.0090000e+03  -1.3143333e+03  -1.3623333e+03  -1.3793333e+03  -1.3863333e+03  -1.3623333e+03  -1.3753333e+03
   3.9000000e+01  -2.0000000e+01  -5.9000000e+01  -1.0335000e+03  -9.7500000e+02   2.0085000e+03  -1.3150000e+03  -1.3620000e+03  -1.3790000e+03  -1.3860000e+03  -1.3620000e+03  -1.3750000e+03
   4.0000000e+01  -1.9000000e+01  -5.9000000e+01  -1.0345000e+03  -9.7450000e+02   2.0090000e+03  -1.3163333e+03  -1.3623333e+03  -1.3793333e+03  -1.3863333e+03  -1.3623333e+03  -1.3753333e+03
   4.0000000e+01  -1.9000000e+01  -5.9000000e+01  -1.0345000e+03  -9.7450000e+02   2.0090000e+03  -1.3163333e+03  -1.3623333e+03  -1.3793333e+03  -1.3863333e+03  -1.3623333e+03  -1.3753333e+03
   4.0000000e+01  -1.8000000e+01  -5.8000000e+01  -1.0350000e+03  -9.7500000e+02   2.0100000e+03  -1.3170000e+03  -1.3620000e+03  -1.3790000e+03  -1.3860000e+03  -1.3610000e+03  -1.3750000e+03
   4.0000000e+01  -1.8000000e+01  -5.8000000e+01  -1.0350000e+03  -9.7500000e+02   2.0100000e+03  -1.3170000e+03  -1.3620000e+03  -1.3790000e+03  -1.3860000e+03  -1.3610000e+03  -1.3750000e+03
   4.1000000e+01  -1.8000000e+01  -5.9000000e+01  -1.0355000e+03  -9.7400000e+02   2.0095000e+03  -1.3176667e+03  -1.3626667e+03  -1.3796667e+03  -1.3866667e+03  -1.3616667e+03  -1.3756667e+03
   4.1000000e+01  -1.8000000e+01  -5.9000000e+01  -1.0355000e+03  -9.7400000e+02   2.0095000e+03  -1.3176667e+03  -1.3626667e+03  -1.3796667e+03  -1.3866667e+03  -1.3616667e+03  -1.3756667e+03
   4.1000000e+01  -1.8000000e+01  -5.9000000e+01  -1.0355000e+03  -9.7400000e+02   2.0095000e+03  -1.3176667e+03  -1.3626667e+03  -1.3796667e+03  -1.3856667e+03  -1.3616667e+03  -1.3756667e+03
   4.1000000e+01  -1.8000000e+01  -5.9000000e+01  -1.0355000e+03  -9.7400000e+02   2.0095000e+03  -1.3176667e+03  -1.3626667e+03  -1.3796667e+03  -1.3856667e+03  -1.3616667e+03  -1.3756667e+03
   4.0000000e+01  -1.8000000e+01  -5.8000000e+01  -1.0350000e+03  -9.7500000e+02   2.0100000e+03  -1.3180000e+03  -1.3620000e+03  -1.3790000e+03  -1.3850000e+03  -1.3610000e+03  -1.3750000e+03
   4.0000000e+01  -1.8000000e+01  -5.8000000e+01  -1.0350000e+03  -9.7500000e+02   2.0100000e+03  -1.3180000e+03  -1.3610000e+03  -1.3790000e+03  -1.3850000e+03  -1.3610000e+03  -1.3750000e+03
   4.0000000e+01  -1.8000000e+01  -5.8000000e+01  -1.0350000e+03  -9.7500000e+02   2.0100000e+03  -1.3180000e+03  -1.3610000e+03  -1.3790000e+03  -1.3850000e+03  -1.3600000e+03  -1.3750000e+03
   4.0000000e+01  -1.8000000e+01  -5.8000000e+01  -1.0350000e+03  -9.7500000e+02   2.0100000e+03  -1.3180000e+03  -1.3620000e+03  -1.3790000e+03  -1.3850000e+03  -1.3600000e+03  -1.3750000e+03
   3.9000000e+01  -1.9000000e+01  -5.8000000e+01  -1.0340000e+03  -9.7550000e+02   2.0095000e+03  -1.3186667e+03  -1.3626667e+03  -1.3796667e+03  -1.3856667e+03  -1.3606667e+03  -1.3746667e+03
   3.9000000e+01  -1.9000000e+01  -5.8000000e+01  -1.0340000e+03  -9.7550000e+02   2.0095000e+03  -1.3186667e+03  -1.3626667e+03  -1.3796667e+03  -1.3856667e+03  -1.3606667e+03  -1.3746667e+03
   3.9000000e+01  -1.9000000e+01  -5.8000000e+01  -1.0340000e+03  -9.7550000e+02   2.0095000e+03  -1.3176667e+03  -1.3616667e+03  -1.3796667e+03  -1.3856667e+03  -1.3596667e+03  -1.3746667e+03
   4.0000000e+01  -1.8000000e+01  -5.8000000e+01  -1.0350000e+03  -9.7500000e+02   2.0100000e+03  -1.3170000e+03  -1.3610000e+03  -1.3790000e+03  -1.3850000e+03  -1.3590000e+03  -1.3740000e+03
   3.9000000e+01  -1.9000000e+01  -5.8000000e+01  -1.0340000e+03  -9.7550000e+02   2.0095000e+03  -1.3176667e+03  -1.3606667e+03  -1.3796667e+03  -1.3846667e+03  -1.3596667e+03  -1.3746667e+03
   3.9000000e+01  -1.9000000e+01  -5.8000000e+01  -1.0340000e+03  -9.7550000e+02   2.0095000e+03  -1.3186667e+03  -1.3606667e+03  -1.3796667e+03  -1.3846667e+03  -1.3596667e+03  -1.3736667e+03
   3.9000000e+01  -1.9000000e+01  -5.8000000e+01  -1.0340000e+03  -9.7550000e+02   2.0095000e+03  -1.3176667e+03  -1.3606667e+03  -1.3786667e+03  -1.3846667e+03  -1.3586667e+03  -1.3736667e+03
   3.9000000e+01  -1.9000000e+01  -5.8000000e+01  -1.0340000e+03  -9.7550000e+02   2.0095000e+03  -1.3176667e+03  -1.3596667e+03  -1.3786667e+03  -1.3846667e+03  -1.3586667e+03  -1.3736667e+03
   4.0000000e+01  -1.9000000e+01  -5.9000000e+01  -1.0345000e+03  -9.7450000e+02   2.0090000e+03  -1.3173333e+03  -1.3593333e+03  -1.3773333e+03  -1.3843333e+03  -1.3583333e+03  -1.3733333e+03
   4.1000000e+01  -1.9000000e+01  -6.0000000e+01  -1.0350000e+03  -9.7350000e+02   2.0085000e+03  -1.3160000e+03  -1.3580000e+03  -1.3770000e+03  -1.3840000e+03  -1.3570000e+03  -1.3730000e+03
   4.0000000e+01  -1.9000000e+01  -5.9000000e+01  -1.0345000e+03  -9.7450000e+02   2.0090000e+03  -1.3163333e+03  -1.3583333e+03  -1.3773333e+03  -1.3843333e+03  -1.3573333e+03  -1.3733333e+03
   4.0000000e+01  -1.9000000e+01  -5.9000000e+01  -1.0345000e+03  -9.7450000e+02   2.0090000e+03  -1.3163333e+03  -1.3583333e+03  -1.3783333e+03  -1.3843333e+03  -1.3573333e+03  -1.3723333e+03
   4.0000000e+01  -1.9000000e+01  -5.9000000e+01  -1.0345000e+03  -9.7450000e+02   2.0090000e+03  -1.3153333e+03  -1.3583333e+03  -1.3783333e+03  -1.3843333e+03  -1.3573333e+03  -1.3723333e+03
   4.0000000e+01  -1.9000000e+01  -5.9000000e+01  -1.0345000e+03  -9.7450000e+02   2.0090000e+03  -1.3163333e+03  -1.3583333e+03  -1.3783333e+03  -1.3843333e+03  -1.3573333e+03  -1.3733333e+03
   4.1000000e+01  -1.8000000e+01  -5.9000000e+01  -1.0355000e+03  -9.7400000e+02   2.0095000e+03  -1.3166667e+03  -1.3586667e+03  -1.3786667e+03  -1.3836667e+03  -1.3576667e+03  -1.3726667e+03
   4.1000000e+01  -1.8000000e+01  -5.9000000e+01  -1.0355000e+03  -9.7400000e+02   2.0095000e+03  -1.3156667e+03  -1.3596667e+03  -1.3786667e+03  -1.3836667e+03  -1.3586667e+03  -1.3736667e+03
   4.2000000e+01  -1.8000000e+01  -6.0000000e+01  -1.0360000e+03  -9.7300000e+02   2.0090000e+03  -1.3153333e+03  -1.3593333e+03  -1.3783333e+03  -1.3833333e+03  -1.3583333e+03  -1.3733333e+03
   4.0000000e+01  -1.8000000e+01  -5.8000000e+01  -1.0350000e+03  -9.7500000e+02   2.0100000e+03  -1.3150000e+03  -1.3590000e+03  -1.3790000e+03  -1.3830000e+03  -1.3580000e+03  -1.3730000e+03
   4.1000000e+01  -1.8000000e+01  -5.9000000e+01  -1.0355000e+03  -9.7400000e+02   2.0095000e+03  -1.3146667e+03  -1.3596667e+03  -1.3796667e+03  -1.3836667e+03  -1.3586667e+03  -1.3736667e+03
   4.1000000e+01  -1.8000000e+01  -5.9000000e+01  -1.0355000e+03  -9.7400000e+02   2.0095000e+03  -1.3146667e+03  -1.3606667e+03  -1.3796667e+03  -1.3836667e+03  -1.3586667e+03  -1.3736667e+03
   4.2000000e+01  -1.7000000e+01  -5.9000000e+01  -1.0365000e+03  -9.7350000e+02   2.0100000e+03  -1.3130000e+03  -1.3600000e+03  -1.3790000e+03  -1.3830000e+03  -1.3590000e+03  -1.3730000e+03
   4.2000000e+01  -1.7000000e+01  -5.9000000e+01  -1.0365000e+03  -9.7350000e+02   2.0100000e+03  -1.3140000e+03  -1.3610000e+03  -1.3790000e+03  -1.3830000e+03  -1.3590000e+03  -1.3730000e+03
   4.2000000e+01  -1.7000000e+01  -5.9000000e+01  -1.0365000e+03  -9.7350000e+02   2.0100000e+03  -1.3150000e+03  -1.3610000e+03  -1.3800000e+03  -1.3830000e+03  -1.3590000e+03  -1.3730000e+03
   4.2000000e+01  -1.7000000e+01  -5.9000000e+01  -1.0365000e+03  -9.7350000e+02   2.0100000e+03  -1.3150000e+03  -1.3610000e+03  -1.3800000e+03  -1.3840000e+03  -1.3590000e+03  -1.3740000e+03
   4.2000000e+01  -1.7000000e+01  -5.9000000e+01  -1.0365000e+03  -9.7350000e+02   2.0100000e+03  -1.3150000e+03  -1.3610000e+03  -1.3800000e+03  -1.3840000e+03  -1.3590000e+03  -1.3740000e+03
   4.3000000e+01  -1.6000000e+01  -5.9000000e+01  -1.0375000e+03  -9.7300000e+02   2.0105000e+03  -1.3153333e+03  -1.3613333e+03  -1.3793333e+03  -1.3843333e+03  -1.3593333e+03  -1.3743333e+03
   4.3000000e+01  -1.6000000e+01  -5.9000000e+01  -1.0375000e+03  -9.7300000e+02   2.0105000e+03  -1.3163333e+03  -1.3613333e+03  -1.3793333e+03  -1.3843333e+03  -1.3593333e+03  -1.3743333e+03
   4.3000000e+01  -1.6000000e+01  -5.9000000e+01  -1.0375000e+03  -9.7300000e+02   2.0105000e+03  -1.3163333e+03  -1.3613333e+03  -1.3793333e+03  -1.3843333e+03  -1.3593333e+03  -1.3733333e+03
   4.4000000e+01  -1.6000000e+01  -6.0000000e+01  -1.0380000e+03  -9.7200000e+02   2.0100000e+03  -1.3170000e+03  -1.3600000e+03  -1.3800000e+03  -1.3840000e+03  -1.3590000e+03  -1.3730000e+03
   4.4000000e+01  -1.6000000e+01  -6.0000000e+01  -1.0380000e+03  -9.7200000e+02   2.0100000e+03  -1.3170000e+03  -1.3600000e+03  -1.3800000e+03  -1.3840000e+03  -1.3580000e+03  -1.3730000e+03
   4.4000000e+01  -1.6000000e+01  -6.0000000e+01  -1.0380000e+03  -9.7200000e+02   2.0100000e+03  -1.3180000e+03  -1.3600000e+03  -1.3800000e+03  -1.3840000e+03  -1.3580000e+03  -1.3730000e+03
   4.3000000e+01  -1.6000000e+01  -5.9000000e+01  -1.0375000e+03  -9.7300000e+02   2.0105000e+03  -1.3193333e+03  -1.3603333e+03  -1.3803333e+03  -1.3843333e+03  -1.3583333e+03  -1.3733333e+03
   4.2000000e+01  -1.6000000e+01  -5.8000000e+01  -1.0370000e+03  -9.7400000e+02   2.0110000e+03  -1.3196667e+03  -1.3606667e+03  -1.3796667e+03  -1.3846667e+03  -1.3576667e+03  -1.3736667e+03
   4.2000000e+01  -1.6000000e+01  -5.8000000e+01  -1.0370000e+03  -9.7400000e+02   2.0110000e+03  -1.3196667e+03  -1.3606667e+03  -1.3796667e+03  -1.3846667e+03  -1.3576667e+03  -1.3726667e+03
   4.1000000e+01  -1.6000000e+01  -5.7000000e+01  -1.0365000e+03  -9.7500000e+02   2.0115000e+03  -1.3190000e+03  -1.3600000e+03  -1.3800000e+03  -1.3840000e+03  -1.3570000e+03  -1.3720000e+03
   4.1000000e+01  -1.6000000e+01  -5.7000000e+01  -1.0365000e+03  -9.7500000e+02   2.0115000e+03  -1.3190000e+03  -1.3590000e+03  -1.3790000e+03  -1.3830000e+03  -1.3560000e+03  -1.3720000e+03
   4.1000000e+01  -1.6000000e+01  -5.7000000e+01  -1.0365000e+03  -9.7500000e+02   2.0115000e+03  -1.3190000e+03  -1.3590000e+03  -1.3780000e+03  -1.3820000e+03  -1.3560000e+03  -1.3720000e+03
   4.0000000e+01  -1.6000000e+01  -5.6000000e+01  -1.0360000e+03  -9.7600000e+02   2.0120000e+03  -1.3193333e+03  -1.3593333e+03  -1.3783333e+03  -1.3823333e+03  -1.3563333e+03  -1.3723333e+03
   3.9000000e+01  -1.6000000e+01  -5.5000000e+01  -1.0355000e+03  -9.7700000e+02   2.0125000e+03  -1.3196667e+03  -1.3596667e+03  -1.3776667e+03  -1.3826667e+03  -1.3566667e+03  -1.3716667e+03
   3.9000000e+01  -1.6000000e+01  -5.5000000e+01  -1.0355000e+03  -9.7700000e+02   2.0125000e+03  -1.3206667e+03  -1.3586667e+03  -1.3776667e+03  -1.3826667e+03  -1.3566667e+03  -1.3716667e+03
   3.9000000e+01  -1.6000000e+01  -5.5000000e+01  -1.0355000e+03  -9.7700000e+02   2.0125000e+03  -1.3196667e+03  -1.3586667e+03  -1.3776667e+03  -1.3826667e+03  -1.3576667e+03  -1.3716667e+03
   3.8000000e+01  -1.6000000e+01  -5.4000000e+01  -1.0350000e+03  -9.7800000e+02   2.0130000e+03  -1.3190000e+03  -1.3580000e+03  -1.3770000e+03  -1.3810000e+03  -1.3570000e+03  -1.3710000e+03
   3.9000000e+01  -1.6000000e+01  -5.5000000e+01  -1.0355000e+03  -9.7700000e+02   2.0125000e+03  -1.3206667e+03  -1.3586667e+03  -1.3776667e+03  -1.3816667e+03  -1.3566667e+03  -1.3716667e+03
   3.8000000e+01  -1.7000000e+01  -5.5000000e+01  -1.0345000e+03  -9.7750000e+02   2.0120000e+03  -1.3203333e+03  -1.3583333e+03  -1.3763333e+03  -1.3813333e+03  -1.3573333e+03  -1.3713333e+03
   3.9000000e+01  -1.7000000e+01  -5.6000000e+01  -1.0350000e+03  -9.7650000e+02   2.0115000e+03  -1.3200000e+03  -1.3580000e+03  -1.3760000e+03  -1.3810000e+03  -1.3570000e+03  -1.3720000e+03
   3.8000000e+01  -1.7000000e+01  -5.5000000e+01  -1.0345000e+03  -9.7750000e+02   2.0120000e+03  -1.3203333e+03  -1.3583333e+03  -1.3773333e+03  -1.3823333e+03  -1.3573333e+03  -1.3723333e+03
   3.9000000e+01  -1.6000000e+01  -5.5000000e+01  -1.0355000e+03  -9.7700000e+02   2.0125000e+03  -1.3206667e+03  -1.3596667e+03  -1.3786667e+03  -1.3826667e+03  -1.3576667e+03  -1.3726667e+03
   3.9000000e+01  -1.6000000e+01  -5.5000000e+01  -1.0355000e+03  -9.7700000e+02   2.0125000e+03  -1.3206667e+03  -1.3596667e+03  -1.3786667e+03  -1.3826667e+03  -1.3576667e+03  -1.3726667e+03
   4.0000000e+01  -1.6000000e+01  -5.6000000e+01  -1.0360000e+03  -9.7600000e+02   2.0120000e+03  -1.3213333e+03  -1.3593333e+03  -1.3783333e+03  -1.3823333e+03  -1.3573333e+03  -1.3723333e+03
   4.1000000e+01  -1.6000000e+01  -5.7000000e+01  -1.0365000e+03  -9.7500000e+02   2.0115000e+03  -1.3210000e+03  -1.3590000e+03  -1.3780000e+03  -1.3820000e+03  -1.3570000e+03  -1.3720000e+03
   4.2000000e+01  -1.5000000e+01  -5.7000000e+01  -1.0375000e+03  -9.7450000e+02   2.0120000e+03  -1.3213333e+03  -1.3593333e+03  -1.3783333e+03  -1.3823333e+03  -1.3573333e+03  -1.3723333e+03
   4.2000000e+01  -1.5000000e+01  -5.7000000e+01  -1.0375000e+03  -9.7450000e+02   2.0120000e+03  -1.3213333e+03  -1.3593333e+03  -1.3783333e+03  -1.3823333e+03  -1.3563333e+03  -1.3713333e+03
   4.3000000e+01  -1.4000000e+01  -5.7000000e+01  -1.0385000e+03  -9.7400000e+02   2.0125000e+03  -1.3206667e+03  -1.3596667e+03  -1.3786667e+03  -1.3826667e+03  -1.3566667e+03  -1.3716667e+03
   4.2000000e+01  -1.4000000e+01  -5.6000000e+01  -1.0380000e+03  -9.7500000e+02   2.0130000e+03  -1.3200000e+03  -1.3590000e+03  -1.3780000e+03  -1.3820000e+03  -1.3560000e+03  -1.3710000e+03
   4.3000000e+01  -1.4000000e+01  -5.7000000e+01  -1.0385000e+03  -9.7400000e+02   2.0125000e+03  -1.3206667e+03  -1.3596667e+03  -1.3786667e+03  -1.3826667e+03  -1.3556667e+03  -1.3716667e+03
   4.3000000e+01  -1.4000000e+01  -5.7000000e+01  -1.0385000e+03  -9.7400000e+02   2.0125000e+03  -1.3206667e+03  -1.3596667e+03  -1.3786667e+03  -1.3826667e+03  -1.3556667e+03  -1.3716667e+03
   4.4000000e+01  -1.4000000e+01  -5.8000000e+01  -1.0390000e+03  -9.7300000e+02   2.0120000e+03  -1.3203333e+03  -1.3583333e+03  -1.3783333e+03  -1.3823333e+03  -1.3553333e+03  -1.3713333e+03
   4.4000000e+01  -1.4000000e+01  -5.8000000e+01  -1.0390000e+03  -9.7300000e+02   2.0120000e+03  -1.3203333e+03  -1.3583333e+03  -1.3783333e+03  -1.3823333e+03  -1.3553333e+03  -1.3713333e+03
